# OpenSignals Text File Format
# {"00:07:80:4C:01:B1": {"sensor": ["EMG"], "device name": "00:07:80:4C:01:B1", "column": ["nSeq", "DI", "CH2"], "sync interval": 2, "time": "15:34:25.337", "comments": "", "device connection": "BTH00:07:80:4C:01:B1", "channels": [2], "date": "2017-5-30", "mode": 0, "digital IO": [0, 1], "firmware version": 512, "device": "bioplux", "position": 0, "sampling rate": 1000, "label": ["CH2"], "resolution": [12], "special": [{}]}}
# EndOfHeader
0	1	2068	
1	1	2073	
2	1	2081	
3	1	2081	
4	1	2080	
5	1	2078	
6	1	2078	
7	1	2058	
8	1	2039	
9	1	2021	
10	1	1991	
11	1	1995	
12	1	2005	
13	1	2020	
14	1	2039	
15	1	2065	
16	1	2079	
17	1	2106	
18	1	2128	
19	1	2130	
20	1	2116	
21	1	2103	
22	1	2078	
23	1	2044	
24	1	2026	
25	1	2023	
26	1	2026	
27	1	2038	
28	1	2042	
29	1	2042	
30	1	2034	
31	1	2035	
32	1	2032	
33	1	2030	
34	1	2044	
35	1	2051	
36	1	2057	
37	1	2064	
38	1	2064	
39	1	2058	
40	1	2069	
41	1	2084	
42	1	2092	
43	1	2094	
44	1	2069	
45	1	2054	
46	1	2041	
47	1	2033	
48	1	2028	
49	1	2028	
50	1	2026	
51	1	2023	
52	1	2029	
53	1	2041	
54	1	2049	
55	1	2053	
56	1	2057	
57	1	2061	
58	1	2071	
59	1	2067	
60	1	2060	
61	1	2058	
62	1	2056	
63	1	2060	
64	1	2054	
65	1	2057	
66	1	2053	
67	1	2060	
68	1	2067	
69	1	2077	
70	1	2074	
71	1	2061	
72	1	2050	
73	1	2039	
74	1	2028	
75	1	2025	
76	1	2031	
77	1	2040	
78	1	2055	
79	1	2063	
80	1	2062	
81	1	2067	
82	1	2071	
83	1	2073	
84	1	2075	
85	1	2070	
86	1	2058	
87	1	2048	
88	1	2042	
89	1	2038	
90	1	2041	
91	1	2038	
92	1	2040	
93	1	2049	
94	1	2054	
95	1	2052	
96	1	2055	
97	1	2063	
98	1	2068	
99	1	2073	
100	1	2078	
101	1	2082	
102	1	2067	
103	1	2048	
104	1	2042	
105	1	2046	
106	1	2047	
107	1	2042	
108	1	2033	
109	1	2032	
110	1	2042	
111	1	2047	
112	1	2053	
113	1	2058	
114	1	2068	
115	1	2072	
116	1	2072	
117	1	2072	
118	1	2070	
119	1	2061	
120	1	2057	
121	1	2049	
122	1	2045	
123	1	2043	
124	1	2047	
125	1	2051	
126	1	2045	
127	1	2030	
128	1	2012	
129	1	2016	
130	1	2030	
131	1	2036	
132	1	2052	
133	1	2063	
134	1	2068	
135	1	2072	
136	1	2074	
137	1	2073	
138	1	2081	
139	1	2085	
140	1	2077	
141	1	2070	
142	1	2062	
143	1	2061	
144	1	2052	
145	1	2047	
146	1	2048	
147	1	2047	
148	1	2046	
149	1	2049	
150	1	2047	
151	1	2050	
152	1	2058	
153	1	2062	
154	1	2060	
155	1	2061	
156	1	2061	
157	1	2057	
158	1	2055	
159	1	2054	
160	1	2034	
161	1	2020	
162	1	2021	
163	1	2028	
164	1	2050	
165	1	2065	
166	1	2078	
167	1	2079	
168	1	2080	
169	1	2090	
170	1	2090	
171	1	2082	
172	1	2075	
173	1	2058	
174	1	2040	
175	1	2031	
176	1	2018	
177	1	2005	
178	1	2005	
179	1	2014	
180	1	2022	
181	1	2037	
182	1	2049	
183	1	2059	
184	1	2064	
185	1	2063	
186	1	2073	
187	1	2078	
188	1	2076	
189	1	2068	
190	1	2060	
191	1	2045	
192	1	2038	
193	1	2045	
194	1	2047	
195	1	2039	
196	1	2045	
197	1	2049	
198	1	2072	
199	1	2081	
200	1	2085	
201	1	2084	
202	1	2085	
203	1	2080	
204	1	2061	
205	1	2056	
206	1	2053	
207	1	2042	
208	1	2042	
209	1	2044	
210	1	2041	
211	1	2037	
212	1	2029	
213	1	2028	
214	1	2037	
215	1	2047	
216	1	2053	
217	1	2058	
218	1	2057	
219	1	2066	
220	1	2069	
221	1	2069	
222	1	2064	
223	1	2067	
224	1	2064	
225	1	2058	
226	1	2057	
227	1	2045	
228	1	2028	
229	1	2022	
230	1	2033	
231	1	2046	
232	1	2049	
233	1	2049	
234	1	2045	
235	1	2056	
236	1	2076	
237	1	2090	
238	1	2105	
239	1	2097	
240	1	2081	
241	1	2057	
242	1	2036	
243	1	2021	
244	1	2015	
245	1	2015	
246	1	2029	
247	1	2037	
248	1	2044	
249	1	2052	
250	1	2063	
251	1	2075	
252	1	2080	
253	1	2078	
254	1	2078	
255	1	2074	
256	1	2069	
257	1	2058	
258	1	2051	
259	1	2043	
260	1	2036	
261	1	2037	
262	1	2036	
263	1	2040	
264	1	2043	
265	1	2045	
266	1	2047	
267	1	2038	
268	1	2047	
269	1	2051	
270	1	2051	
271	1	2057	
272	1	2064	
273	1	2070	
274	1	2066	
275	1	2060	
276	1	2062	
277	1	2066	
278	1	2072	
279	1	2085	
280	1	2093	
281	1	2079	
282	1	2064	
283	1	2029	
284	1	2003	
285	1	1996	
286	1	2000	
287	1	2018	
288	1	2052	
289	1	2067	
290	1	2068	
291	1	2074	
292	1	2081	
293	1	2103	
294	1	2104	
295	1	2092	
296	1	2066	
297	1	2038	
298	1	2027	
299	1	2029	
300	1	2028	
301	1	2033	
302	1	2032	
303	1	2033	
304	1	2041	
305	1	2043	
306	1	2044	
307	1	2044	
308	1	2049	
309	1	2052	
310	1	2058	
311	1	2064	
312	1	2069	
313	1	2070	
314	1	2069	
315	1	2071	
316	1	2071	
317	1	2070	
318	1	2063	
319	1	2053	
320	1	2048	
321	1	2045	
322	1	2046	
323	1	2052	
324	1	2056	
325	1	2055	
326	1	2063	
327	1	2064	
328	1	2060	
329	1	2056	
330	1	2055	
331	1	2031	
332	1	2024	
333	1	2023	
334	1	2027	
335	1	2038	
336	1	2058	
337	1	2069	
338	1	2076	
339	1	2083	
340	1	2084	
341	1	2086	
342	1	2077	
343	1	2067	
344	1	2058	
345	1	2051	
346	1	2054	
347	1	2056	
348	1	2055	
349	1	2052	
350	1	2045	
351	1	2037	
352	1	2033	
353	1	2036	
354	1	2045	
355	1	2047	
356	1	2052	
357	1	2057	
358	1	2063	
359	1	2056	
360	1	2056	
361	1	2063	
362	1	2064	
363	1	2053	
364	1	2039	
365	1	2033	
366	1	2032	
367	1	2031	
368	1	2042	
369	1	2057	
370	1	2058	
371	1	2058	
372	1	2066	
373	1	2062	
374	1	2067	
375	1	2072	
376	1	2086	
377	1	2080	
378	1	2058	
379	1	2044	
380	1	2044	
381	1	2044	
382	1	2042	
383	1	2045	
384	1	2042	
385	1	2048	
386	1	2051	
387	1	2051	
388	1	2052	
389	1	2059	
390	1	2056	
391	1	2059	
392	1	2057	
393	1	2058	
394	1	2054	
395	1	2056	
396	1	2054	
397	1	2057	
398	1	2038	
399	1	2033	
400	1	2046	
401	1	2047	
402	1	2048	
403	1	2053	
404	1	2053	
405	1	2045	
406	1	2049	
407	1	2054	
408	1	2062	
409	1	2077	
410	1	2090	
411	1	2096	
412	1	2097	
413	1	2062	
414	1	2050	
415	1	2048	
416	1	2035	
417	1	2041	
418	1	2044	
419	1	2042	
420	1	2048	
421	1	2061	
422	1	2067	
423	1	2074	
424	1	2066	
425	1	2061	
426	1	2046	
427	1	2031	
428	1	2028	
429	1	2028	
430	1	2031	
431	1	2037	
432	1	2040	
433	1	2041	
434	1	2047	
435	1	2055	
436	1	2061	
437	1	2066	
438	1	2074	
439	1	2072	
440	1	2070	
441	1	2061	
442	1	2056	
443	1	2046	
444	1	2043	
445	1	2042	
446	1	2047	
447	1	2054	
448	1	2060	
449	1	2064	
450	1	2067	
451	1	2080	
452	1	2080	
453	1	2073	
454	1	2055	
455	1	2033	
456	1	2028	
457	1	2032	
458	1	2033	
459	1	2046	
460	1	2050	
461	1	2053	
462	1	2057	
463	1	2070	
464	1	2081	
465	1	2080	
466	1	2070	
467	1	2059	
468	1	2045	
469	1	2033	
470	1	2037	
471	1	2039	
472	1	2039	
473	1	2043	
474	1	2044	
475	1	2053	
476	1	2055	
477	1	2057	
478	1	2064	
479	1	2073	
480	1	2072	
481	1	2066	
482	1	2063	
483	1	2060	
484	1	2052	
485	1	2050	
486	1	2050	
487	1	2047	
488	1	2049	
489	1	2049	
490	1	2048	
491	1	2054	
492	1	2053	
493	1	2052	
494	1	2044	
495	1	2046	
496	1	2053	
497	1	2056	
498	1	2051	
499	1	2054	
500	1	2060	
501	1	2054	
502	1	2055	
503	1	2055	
504	1	2050	
505	1	2041	
506	1	2038	
507	1	2048	
508	1	2055	
509	1	2062	
510	1	2076	
511	1	2085	
512	1	2081	
513	1	2080	
514	1	2082	
515	1	2076	
516	1	2069	
517	1	2052	
518	1	2040	
519	1	2030	
520	1	2024	
521	1	2027	
522	1	2029	
523	1	2043	
524	1	2050	
525	1	2044	
526	1	2027	
527	1	2020	
528	1	2038	
529	1	2059	
530	1	2072	
531	1	2065	
532	1	2063	
533	1	2054	
534	1	2043	
535	1	2050	
536	1	2055	
537	1	2070	
538	1	2090	
539	1	2083	
540	1	2080	
541	1	2072	
542	1	2071	
543	1	2070	
544	1	2069	
545	1	2050	
546	1	2035	
547	1	2029	
548	1	2036	
549	1	2042	
550	1	2045	
551	1	2045	
552	1	2043	
553	1	2039	
554	1	2040	
555	1	2038	
556	1	2044	
557	1	2044	
558	1	2056	
559	1	2061	
560	1	2063	
561	1	2068	
562	1	2065	
563	1	2059	
564	1	2066	
565	1	2075	
566	1	2081	
567	1	2097	
568	1	2095	
569	1	2079	
570	1	2052	
571	1	2047	
572	1	2036	
573	1	2023	
574	1	2021	
575	1	2022	
576	1	2022	
577	1	2026	
578	1	2038	
579	1	2052	
580	1	2059	
581	1	2052	
582	1	2044	
583	1	2048	
584	1	2053	
585	1	2064	
586	1	2072	
587	1	2068	
588	1	2064	
589	1	2058	
590	1	2054	
591	1	2049	
592	1	2048	
593	1	2045	
594	1	2053	
595	1	2055	
596	1	2052	
597	1	2039	
598	1	2041	
599	1	2038	
600	1	2053	
601	1	2064	
602	1	2071	
603	1	2077	
604	1	2080	
605	1	2082	
606	1	2079	
607	1	2093	
608	1	2086	
609	1	2082	
610	1	2062	
611	1	2034	
612	1	2007	
613	1	2003	
614	1	2008	
615	1	2024	
616	1	2042	
617	1	2056	
618	1	2066	
619	1	2076	
620	1	2077	
621	1	2068	
622	1	2058	
623	1	2054	
624	1	2040	
625	1	2036	
626	1	2035	
627	1	2037	
628	1	2039	
629	1	2044	
630	1	2051	
631	1	2055	
632	1	2057	
633	1	2060	
634	1	2063	
635	1	2064	
636	1	2066	
637	1	2069	
638	1	2066	
639	1	2061	
640	1	2062	
641	1	2057	
642	1	2056	
643	1	2055	
644	1	2059	
645	1	2062	
646	1	2060	
647	1	2059	
648	1	2035	
649	1	2033	
650	1	2035	
651	1	2040	
652	1	2047	
653	1	2056	
654	1	2065	
655	1	2064	
656	1	2059	
657	1	2058	
658	1	2059	
659	1	2063	
660	1	2074	
661	1	2076	
662	1	2075	
663	1	2065	
664	1	2058	
665	1	2056	
666	1	2057	
667	1	2058	
668	1	2052	
669	1	2041	
670	1	2039	
671	1	2036	
672	1	2032	
673	1	2026	
674	1	2025	
675	1	2049	
676	1	2077	
677	1	2069	
678	1	2045	
679	1	2036	
680	1	2033	
681	1	2031	
682	1	2034	
683	1	2035	
684	1	2038	
685	1	2042	
686	1	2045	
687	1	2054	
688	1	2074	
689	1	2090	
690	1	2097	
691	1	2095	
692	1	2078	
693	1	2069	
694	1	2070	
695	1	2074	
696	1	2074	
697	1	2072	
698	1	2058	
699	1	2042	
700	1	2027	
701	1	2028	
702	1	2032	
703	1	2038	
704	1	2044	
705	1	2049	
706	1	2048	
707	1	2048	
708	1	2049	
709	1	2055	
710	1	2057	
711	1	2055	
712	1	2058	
713	1	2060	
714	1	2057	
715	1	2058	
716	1	2057	
717	1	2059	
718	1	2056	
719	1	2054	
720	1	2054	
721	1	2056	
722	1	2067	
723	1	2068	
724	1	2070	
725	1	2063	
726	1	2052	
727	1	2052	
728	1	2050	
729	1	2058	
730	1	2051	
731	1	2052	
732	1	2052	
733	1	2055	
734	1	2043	
735	1	2042	
736	1	2038	
737	1	2037	
738	1	2035	
739	1	2042	
740	1	2045	
741	1	2046	
742	1	2049	
743	1	2057	
744	1	2061	
745	1	2060	
746	1	2063	
747	1	2057	
748	1	2050	
749	1	2051	
750	1	2050	
751	1	2056	
752	1	2056	
753	1	2058	
754	1	2059	
755	1	2054	
756	1	2046	
757	1	2053	
758	1	2062	
759	1	2067	
760	1	2076	
761	1	2080	
762	1	2070	
763	1	2062	
764	1	2057	
765	1	2055	
766	1	2044	
767	1	2037	
768	1	2035	
769	1	2037	
770	1	2037	
771	1	2040	
772	1	2048	
773	1	2060	
774	1	2061	
775	1	2060	
776	1	2063	
777	1	2062	
778	1	2054	
779	1	2049	
780	1	2052	
781	1	2040	
782	1	2044	
783	1	2041	
784	1	2039	
785	1	2051	
786	1	2041	
787	1	2038	
788	1	2057	
789	1	2077	
790	1	2089	
791	1	2115	
792	1	2118	
793	1	2106	
794	1	2086	
795	1	2073	
796	1	2060	
797	1	2035	
798	1	2032	
799	1	2039	
800	1	2033	
801	1	2024	
802	1	2021	
803	1	2033	
804	1	2042	
805	1	2047	
806	1	2051	
807	1	2056	
808	1	2055	
809	1	2058	
810	1	2058	
811	1	2052	
812	1	2043	
813	1	2042	
814	1	2045	
815	1	2044	
816	1	2050	
817	1	2054	
818	1	2056	
819	1	2056	
820	1	2058	
821	1	2051	
822	1	2051	
823	1	2057	
824	1	2059	
825	1	2059	
826	1	2061	
827	1	2063	
828	1	2071	
829	1	2075	
830	1	2077	
831	1	2068	
832	1	2074	
833	1	2061	
834	1	2047	
835	1	2035	
836	1	2025	
837	1	2027	
838	1	2029	
839	1	2036	
840	1	2046	
841	1	2054	
842	1	2065	
843	1	2078	
844	1	2089	
845	1	2073	
846	1	2047	
847	1	2033	
848	1	2032	
849	1	2034	
850	1	2036	
851	1	2051	
852	1	2075	
853	1	2084	
854	1	2072	
855	1	2057	
856	1	2046	
857	1	2049	
858	1	2045	
859	1	2044	
860	1	2050	
861	1	2057	
862	1	2066	
863	1	2084	
864	1	2097	
865	1	2097	
866	1	2091	
867	1	2075	
868	1	2067	
869	1	2046	
870	1	2030	
871	1	2026	
872	1	2018	
873	1	2013	
874	1	2010	
875	1	2012	
876	1	2030	
877	1	2059	
878	1	2077	
879	1	2087	
880	1	2104	
881	1	2096	
882	1	2080	
883	1	2056	
884	1	2041	
885	1	2030	
886	1	2019	
887	1	2010	
888	1	2015	
889	1	2027	
890	1	2025	
891	1	2027	
892	1	2046	
893	1	2051	
894	1	2071	
895	1	2072	
896	1	2068	
897	1	2059	
898	1	2060	
899	1	2072	
900	1	2066	
901	1	2074	
902	1	2072	
903	1	2069	
904	1	2055	
905	1	2024	
906	1	2018	
907	1	2014	
908	1	2040	
909	1	2064	
910	1	2084	
911	1	2100	
912	1	2101	
913	1	2098	
914	1	2076	
915	1	2044	
916	1	2017	
917	1	2014	
918	1	2015	
919	1	2037	
920	1	2072	
921	1	2103	
922	1	2093	
923	1	2090	
924	1	2108	
925	1	2114	
926	1	2094	
927	1	2068	
928	1	2027	
929	1	1997	
930	1	1988	
931	1	1997	
932	1	2016	
933	1	2036	
934	1	2058	
935	1	2062	
936	1	1950	
937	1	1921	
938	1	1936	
939	1	1998	
940	1	2083	
941	1	2160	
942	1	2186	
943	1	2177	
944	1	2142	
945	1	2104	
946	1	2058	
947	1	2030	
948	1	2030	
949	1	2041	
950	1	2054	
951	1	2073	
952	1	2078	
953	1	2077	
954	1	2064	
955	1	2035	
956	1	2037	
957	1	2031	
958	1	2006	
959	1	2022	
960	1	2040	
961	1	2046	
962	1	2056	
963	1	2064	
964	1	2066	
965	1	2064	
966	1	2065	
967	1	2064	
968	1	2060	
969	1	2067	
970	1	2055	
971	1	2046	
972	1	2046	
973	1	2042	
974	1	2039	
975	1	2053	
976	1	2072	
977	1	2073	
978	1	2080	
979	1	2070	
980	1	2051	
981	1	2041	
982	1	2028	
983	1	2002	
984	1	1986	
985	1	1992	
986	1	2020	
987	1	2047	
988	1	2081	
989	1	2091	
990	1	2113	
991	1	2131	
992	1	2133	
993	1	2123	
994	1	2096	
995	1	2080	
996	1	2061	
997	1	2029	
998	1	2004	
999	1	2006	
1000	1	2001	
1001	1	2005	
1002	1	2019	
1003	1	2032	
1004	1	2009	
1005	1	1964	
1006	1	1971	
1007	1	2006	
1008	1	2060	
1009	1	2096	
1010	1	2118	
1011	1	2126	
1012	1	2115	
1013	1	2116	
1014	1	2116	
1015	1	2110	
1016	1	2111	
1017	1	2099	
1018	1	2060	
1019	1	2040	
1020	1	2014	
1021	1	1997	
1022	1	2003	
1023	1	2033	
1024	1	2031	
1025	1	2049	
1026	1	2045	
1027	1	2010	
1028	1	1969	
1029	1	1932	
1030	1	1934	
1031	1	1978	
1032	1	2027	
1033	1	2096	
1034	1	2156	
1035	1	2192	
1036	1	2201	
1037	1	2199	
1038	1	2183	
1039	1	2103	
1040	1	2039	
1041	1	2009	
1042	1	2003	
1043	1	1937	
1044	1	1967	
1045	1	2023	
1046	1	2078	
1047	1	2118	
1048	1	2138	
1049	1	2121	
1050	1	2085	
1051	1	2082	
1052	1	2082	
1053	1	2091	
1054	1	2066	
1055	1	2023	
1056	1	1974	
1057	1	1959	
1058	1	1952	
1059	1	1975	
1060	1	1978	
1061	1	1988	
1062	1	2050	
1063	1	2031	
1064	1	1982	
1065	1	2017	
1066	1	2069	
1067	1	2131	
1068	1	2173	
1069	1	2226	
1070	1	2224	
1071	1	2186	
1072	1	2083	
1073	1	1999	
1074	1	1938	
1075	1	1916	
1076	1	1906	
1077	1	1931	
1078	1	1997	
1079	1	2095	
1080	1	2131	
1081	1	2124	
1082	1	2075	
1083	1	2032	
1084	1	2022	
1085	1	2016	
1086	1	2042	
1087	1	2065	
1088	1	2091	
1089	1	2107	
1090	1	2120	
1091	1	2119	
1092	1	2106	
1093	1	2080	
1094	1	2076	
1095	1	2068	
1096	1	2037	
1097	1	2005	
1098	1	1992	
1099	1	1883	
1100	1	1701	
1101	1	1756	
1102	1	1805	
1103	1	1956	
1104	1	2109	
1105	1	2192	
1106	1	2296	
1107	1	2429	
1108	1	2456	
1109	1	2488	
1110	1	2419	
1111	1	2265	
1112	1	2106	
1113	1	2007	
1114	1	1916	
1115	1	1828	
1116	1	1808	
1117	1	1796	
1118	1	1832	
1119	1	1877	
1120	1	1886	
1121	1	1961	
1122	1	1991	
1123	1	1991	
1124	1	2083	
1125	1	2122	
1126	1	2141	
1127	1	2137	
1128	1	2130	
1129	1	2144	
1130	1	2201	
1131	1	2207	
1132	1	2152	
1133	1	2065	
1134	1	1944	
1135	1	1985	
1136	1	2031	
1137	1	2071	
1138	1	2067	
1139	1	2068	
1140	1	2106	
1141	1	2158	
1142	1	2237	
1143	1	2231	
1144	1	2122	
1145	1	1962	
1146	1	1868	
1147	1	1841	
1148	1	1872	
1149	1	1932	
1150	1	2014	
1151	1	2077	
1152	1	2064	
1153	1	2108	
1154	1	2136	
1155	1	2141	
1156	1	2062	
1157	1	1992	
1158	1	1898	
1159	1	1846	
1160	1	1884	
1161	1	1972	
1162	1	1980	
1163	1	1993	
1164	1	2038	
1165	1	2142	
1166	1	2200	
1167	1	2232	
1168	1	2054	
1169	1	2056	
1170	1	2042	
1171	1	2047	
1172	1	2084	
1173	1	2106	
1174	1	2106	
1175	1	2109	
1176	1	2158	
1177	1	2213	
1178	1	1914	
1179	1	1723	
1180	1	1556	
1181	1	1487	
1182	1	1563	
1183	1	1889	
1184	1	2265	
1185	1	2549	
1186	1	2776	
1187	1	2848	
1188	1	2776	
1189	1	2564	
1190	1	2309	
1191	1	2085	
1192	1	1958	
1193	1	1856	
1194	1	1913	
1195	1	1953	
1196	1	1973	
1197	1	1993	
1198	1	2058	
1199	1	2111	
1200	1	1712	
1201	1	1524	
1202	1	1599	
1203	1	1846	
1204	1	2126	
1205	1	2318	
1206	1	2308	
1207	1	2228	
1208	1	2079	
1209	1	1923	
1210	1	1820	
1211	1	1785	
1212	1	1729	
1213	1	1787	
1214	1	1938	
1215	1	2136	
1216	1	2274	
1217	1	2296	
1218	1	2242	
1219	1	1959	
1220	1	1870	
1221	1	1959	
1222	1	2137	
1223	1	2220	
1224	1	2276	
1225	1	2252	
1226	1	2157	
1227	1	2043	
1228	1	1939	
1229	1	1835	
1230	1	1853	
1231	1	1931	
1232	1	1973	
1233	1	2167	
1234	1	2239	
1235	1	2359	
1236	1	2420	
1237	1	2416	
1238	1	2318	
1239	1	2208	
1240	1	2020	
1241	1	1912	
1242	1	1921	
1243	1	1936	
1244	1	1963	
1245	1	1928	
1246	1	1786	
1247	1	1531	
1248	1	1429	
1249	1	1746	
1250	1	2086	
1251	1	2337	
1252	1	2328	
1253	1	2321	
1254	1	2319	
1255	1	2316	
1256	1	2266	
1257	1	2124	
1258	1	1996	
1259	1	2008	
1260	1	2043	
1261	1	2005	
1262	1	1941	
1263	1	1909	
1264	1	1876	
1265	1	1931	
1266	1	1897	
1267	1	1899	
1268	1	1901	
1269	1	1872	
1270	1	1860	
1271	1	1822	
1272	1	2015	
1273	1	2239	
1274	1	2423	
1275	1	2436	
1276	1	2531	
1277	1	2612	
1278	1	2633	
1279	1	2499	
1280	1	2345	
1281	1	2174	
1282	1	1997	
1283	1	1927	
1284	1	1334	
1285	1	893	
1286	1	843	
1287	1	1309	
1288	1	1858	
1289	1	1974	
1290	1	2327	
1291	1	2588	
1292	1	2674	
1293	1	2650	
1294	1	2496	
1295	1	2324	
1296	1	2124	
1297	1	2053	
1298	1	2184	
1299	1	2245	
1300	1	2211	
1301	1	2262	
1302	1	2237	
1303	1	2216	
1304	1	2114	
1305	1	1923	
1306	1	1727	
1307	1	1594	
1308	1	1719	
1309	1	1854	
1310	1	1980	
1311	1	1994	
1312	1	2055	
1313	1	2124	
1314	1	2183	
1315	1	2218	
1316	1	1994	
1317	1	1534	
1318	1	1567	
1319	1	1704	
1320	1	1870	
1321	1	2037	
1322	1	2152	
1323	1	2200	
1324	1	2123	
1325	1	2036	
1326	1	2058	
1327	1	2110	
1328	1	2187	
1329	1	2192	
1330	1	1866	
1331	1	1849	
1332	1	2053	
1333	1	2256	
1334	1	2279	
1335	1	2182	
1336	1	2286	
1337	1	2419	
1338	1	2507	
1339	1	2487	
1340	1	2377	
1341	1	2145	
1342	1	1901	
1343	1	1841	
1344	1	1863	
1345	1	1918	
1346	1	1925	
1347	1	1913	
1348	1	1911	
1349	1	1945	
1350	1	2095	
1351	1	1949	
1352	1	1619	
1353	1	1557	
1354	1	1785	
1355	1	1921	
1356	1	2124	
1357	1	2284	
1358	1	2413	
1359	1	2407	
1360	1	2322	
1361	1	2168	
1362	1	2063	
1363	1	2134	
1364	1	2110	
1365	1	2120	
1366	1	2113	
1367	1	2094	
1368	1	2037	
1369	1	1936	
1370	1	1855	
1371	1	1860	
1372	1	1946	
1373	1	1888	
1374	1	1831	
1375	1	1911	
1376	1	1977	
1377	1	2082	
1378	1	2035	
1379	1	1840	
1380	1	1790	
1381	1	1812	
1382	1	2101	
1383	1	2299	
1384	1	2446	
1385	1	2477	
1386	1	2309	
1387	1	2376	
1388	1	2402	
1389	1	2331	
1390	1	2219	
1391	1	2177	
1392	1	2104	
1393	1	2130	
1394	1	2030	
1395	1	2001	
1396	1	1906	
1397	1	1812	
1398	1	1792	
1399	1	1841	
1400	1	1911	
1401	1	1917	
1402	1	1773	
1403	1	1772	
1404	1	1822	
1405	1	1974	
1406	1	2009	
1407	1	1684	
1408	1	1714	
1409	1	1850	
1410	1	2173	
1411	1	2276	
1412	1	2214	
1413	1	2421	
1414	1	2323	
1415	1	2172	
1416	1	2272	
1417	1	2369	
1418	1	2391	
1419	1	2382	
1420	1	2405	
1421	1	2409	
1422	1	2192	
1423	1	1901	
1424	1	1498	
1425	1	1441	
1426	1	1219	
1427	1	1541	
1428	1	1675	
1429	1	1867	
1430	1	2176	
1431	1	2454	
1432	1	2702	
1433	1	2761	
1434	1	2568	
1435	1	2406	
1436	1	2267	
1437	1	2254	
1438	1	2168	
1439	1	2047	
1440	1	2014	
1441	1	1769	
1442	1	1486	
1443	1	1585	
1444	1	1685	
1445	1	1727	
1446	1	1938	
1447	1	2281	
1448	1	2457	
1449	1	2373	
1450	1	2137	
1451	1	1964	
1452	1	1927	
1453	1	1870	
1454	1	1800	
1455	1	1872	
1456	1	1960	
1457	1	1969	
1458	1	1981	
1459	1	1891	
1460	1	1985	
1461	1	1974	
1462	1	1722	
1463	1	1688	
1464	1	1705	
1465	1	1956	
1466	1	2430	
1467	1	2804	
1468	1	3025	
1469	1	3030	
1470	1	2862	
1471	1	2640	
1472	1	2233	
1473	1	1976	
1474	1	1422	
1475	1	1228	
1476	1	1192	
1477	1	1462	
1478	1	1717	
1479	1	1988	
1480	1	2162	
1481	1	2368	
1482	1	2390	
1483	1	2183	
1484	1	1874	
1485	1	1805	
1486	1	1939	
1487	1	2067	
1488	1	2242	
1489	1	2223	
1490	1	2299	
1491	1	2355	
1492	1	2365	
1493	1	2364	
1494	1	2177	
1495	1	1870	
1496	1	1749	
1497	1	1642	
1498	1	1290	
1499	1	451	
1500	1	580	
1501	1	1566	
1502	1	2780	
1503	1	3384	
1504	1	3593	
1505	1	3672	
1506	1	3447	
1507	1	2894	
1508	1	2343	
1509	1	1948	
1510	1	1692	
1511	1	1576	
1512	1	1476	
1513	1	1268	
1514	1	1307	
1515	1	1235	
1516	1	1456	
1517	1	1708	
1518	1	1830	
1519	1	1921	
1520	1	2001	
1521	1	2120	
1522	1	2171	
1523	1	2264	
1524	1	2398	
1525	1	2515	
1526	1	2611	
1527	1	2621	
1528	1	2479	
1529	1	2025	
1530	1	1422	
1531	1	1381	
1532	1	1778	
1533	1	2084	
1534	1	2377	
1535	1	2532	
1536	1	2401	
1537	1	2218	
1538	1	1886	
1539	1	1226	
1540	1	1180	
1541	1	1570	
1542	1	1974	
1543	1	2344	
1544	1	2599	
1545	1	2717	
1546	1	2766	
1547	1	2552	
1548	1	2270	
1549	1	2163	
1550	1	2064	
1551	1	1919	
1552	1	1839	
1553	1	1880	
1554	1	1943	
1555	1	1907	
1556	1	1794	
1557	1	1436	
1558	1	1373	
1559	1	1768	
1560	1	2138	
1561	1	2299	
1562	1	2500	
1563	1	2505	
1564	1	2417	
1565	1	2136	
1566	1	1870	
1567	1	1886	
1568	1	1832	
1569	1	1263	
1570	1	1440	
1571	1	1746	
1572	1	2054	
1573	1	2264	
1574	1	2487	
1575	1	2689	
1576	1	2714	
1577	1	2559	
1578	1	2203	
1579	1	1904	
1580	1	2151	
1581	1	1902	
1582	1	1531	
1583	1	1517	
1584	1	1543	
1585	1	2093	
1586	1	2640	
1587	1	2739	
1588	1	2614	
1589	1	2418	
1590	1	2176	
1591	1	2018	
1592	1	1898	
1593	1	1490	
1594	1	1479	
1595	1	1660	
1596	1	1863	
1597	1	2033	
1598	1	2091	
1599	1	2162	
1600	1	2170	
1601	1	2133	
1602	1	2139	
1603	1	2185	
1604	1	2254	
1605	1	2103	
1606	1	1894	
1607	1	1760	
1608	1	1784	
1609	1	1835	
1610	1	2033	
1611	1	2327	
1612	1	2545	
1613	1	2585	
1614	1	2535	
1615	1	2373	
1616	1	2105	
1617	1	1114	
1618	1	649	
1619	1	1208	
1620	1	1922	
1621	1	2318	
1622	1	2700	
1623	1	2915	
1624	1	2795	
1625	1	2403	
1626	1	1776	
1627	1	1558	
1628	1	1690	
1629	1	1878	
1630	1	2074	
1631	1	2232	
1632	1	2364	
1633	1	2254	
1634	1	1799	
1635	1	1862	
1636	1	2082	
1637	1	2252	
1638	1	2310	
1639	1	2189	
1640	1	1721	
1641	1	1870	
1642	1	1944	
1643	1	2025	
1644	1	2098	
1645	1	2154	
1646	1	2300	
1647	1	2192	
1648	1	1785	
1649	1	1669	
1650	1	1711	
1651	1	1672	
1652	1	1601	
1653	1	1674	
1654	1	2235	
1655	1	2859	
1656	1	3092	
1657	1	3125	
1658	1	2838	
1659	1	2399	
1660	1	1724	
1661	1	1272	
1662	1	1223	
1663	1	1341	
1664	1	1691	
1665	1	1943	
1666	1	2104	
1667	1	2097	
1668	1	2055	
1669	1	2117	
1670	1	2303	
1671	1	2546	
1672	1	2628	
1673	1	2054	
1674	1	1596	
1675	1	1506	
1676	1	1408	
1677	1	1706	
1678	1	1945	
1679	1	1933	
1680	1	1825	
1681	1	2204	
1682	1	2475	
1683	1	2874	
1684	1	3033	
1685	1	2828	
1686	1	2182	
1687	1	1848	
1688	1	1899	
1689	1	1946	
1690	1	1936	
1691	1	1821	
1692	1	1775	
1693	1	1894	
1694	1	1885	
1695	1	1899	
1696	1	2029	
1697	1	2104	
1698	1	2093	
1699	1	2126	
1700	1	2139	
1701	1	1891	
1702	1	1994	
1703	1	2111	
1704	1	2059	
1705	1	1949	
1706	1	2000	
1707	1	2016	
1708	1	1997	
1709	1	1930	
1710	1	1953	
1711	1	1976	
1712	1	1892	
1713	1	1914	
1714	1	1881	
1715	1	1932	
1716	1	1998	
1717	1	2042	
1718	1	2242	
1719	1	2321	
1720	1	2009	
1721	1	2045	
1722	1	2390	
1723	1	2500	
1724	1	2353	
1725	1	2334	
1726	1	2482	
1727	1	2557	
1728	1	2245	
1729	1	2115	
1730	1	2057	
1731	1	2001	
1732	1	1889	
1733	1	1900	
1734	1	1849	
1735	1	1808	
1736	1	1772	
1737	1	1676	
1738	1	1702	
1739	1	1686	
1740	1	2013	
1741	1	1838	
1742	1	1612	
1743	1	1675	
1744	1	2081	
1745	1	2567	
1746	1	2475	
1747	1	2269	
1748	1	2229	
1749	1	1901	
1750	1	1124	
1751	1	1013	
1752	1	1628	
1753	1	2282	
1754	1	2824	
1755	1	3167	
1756	1	3211	
1757	1	2820	
1758	1	2145	
1759	1	1979	
1760	1	2345	
1761	1	2520	
1762	1	2183	
1763	1	1841	
1764	1	1467	
1765	1	1457	
1766	1	1613	
1767	1	1970	
1768	1	2187	
1769	1	2224	
1770	1	2247	
1771	1	2019	
1772	1	1734	
1773	1	1513	
1774	1	1451	
1775	1	1621	
1776	1	1962	
1777	1	2192	
1778	1	2254	
1779	1	2251	
1780	1	2161	
1781	1	2125	
1782	1	1970	
1783	1	1810	
1784	1	1534	
1785	1	1840	
1786	1	2212	
1787	1	2358	
1788	1	2192	
1789	1	2303	
1790	1	2632	
1791	1	2756	
1792	1	2672	
1793	1	2471	
1794	1	2234	
1795	1	1897	
1796	1	1630	
1797	1	1730	
1798	1	2247	
1799	1	2312	
1800	1	1987	
1801	1	1808	
1802	1	1740	
1803	1	1652	
1804	1	1548	
1805	1	1926	
1806	1	2027	
1807	1	2030	
1808	1	2135	
1809	1	2151	
1810	1	2210	
1811	1	2148	
1812	1	1974	
1813	1	1943	
1814	1	1958	
1815	1	1770	
1816	1	1750	
1817	1	2129	
1818	1	2326	
1819	1	1948	
1820	1	2009	
1821	1	2296	
1822	1	2271	
1823	1	2113	
1824	1	2222	
1825	1	2335	
1826	1	2394	
1827	1	2412	
1828	1	2339	
1829	1	2147	
1830	1	1839	
1831	1	1651	
1832	1	1645	
1833	1	1642	
1834	1	1676	
1835	1	1821	
1836	1	1936	
1837	1	2053	
1838	1	2327	
1839	1	2428	
1840	1	2352	
1841	1	2242	
1842	1	2115	
1843	1	1909	
1844	1	1621	
1845	1	1499	
1846	1	1570	
1847	1	1746	
1848	1	1779	
1849	1	1909	
1850	1	2190	
1851	1	2521	
1852	1	2352	
1853	1	2277	
1854	1	2378	
1855	1	2504	
1856	1	2538	
1857	1	2367	
1858	1	2237	
1859	1	2007	
1860	1	2023	
1861	1	2097	
1862	1	2198	
1863	1	2281	
1864	1	2213	
1865	1	2135	
1866	1	1881	
1867	1	1700	
1868	1	1609	
1869	1	1567	
1870	1	1688	
1871	1	1906	
1872	1	1765	
1873	1	1843	
1874	1	2024	
1875	1	2199	
1876	1	2076	
1877	1	2001	
1878	1	1971	
1879	1	1986	
1880	1	2148	
1881	1	2348	
1882	1	2342	
1883	1	2252	
1884	1	2414	
1885	1	2828	
1886	1	2435	
1887	1	1764	
1888	1	1663	
1889	1	1836	
1890	1	1942	
1891	1	2067	
1892	1	2075	
1893	1	1901	
1894	1	1746	
1895	1	1714	
1896	1	1952	
1897	1	2153	
1898	1	2338	
1899	1	2364	
1900	1	2257	
1901	1	2522	
1902	1	2570	
1903	1	2244	
1904	1	1787	
1905	1	1457	
1906	1	1403	
1907	1	1633	
1908	1	1702	
1909	1	1689	
1910	1	1920	
1911	1	2011	
1912	1	2102	
1913	1	2044	
1914	1	2009	
1915	1	1951	
1916	1	1930	
1917	1	1884	
1918	1	1968	
1919	1	2447	
1920	1	2689	
1921	1	2647	
1922	1	2294	
1923	1	2109	
1924	1	2096	
1925	1	2010	
1926	1	2021	
1927	1	2187	
1928	1	2311	
1929	1	2414	
1930	1	2682	
1931	1	2986	
1932	1	2644	
1933	1	2033	
1934	1	1497	
1935	1	1273	
1936	1	1380	
1937	1	1380	
1938	1	1431	
1939	1	1646	
1940	1	1708	
1941	1	1667	
1942	1	1921	
1943	1	2019	
1944	1	1942	
1945	1	1898	
1946	1	1974	
1947	1	2203	
1948	1	2392	
1949	1	2714	
1950	1	2558	
1951	1	2351	
1952	1	2274	
1953	1	2227	
1954	1	2154	
1955	1	2023	
1956	1	1772	
1957	1	1667	
1958	1	2092	
1959	1	2367	
1960	1	2291	
1961	1	1989	
1962	1	2122	
1963	1	2298	
1964	1	2254	
1965	1	2195	
1966	1	2024	
1967	1	1842	
1968	1	1728	
1969	1	2007	
1970	1	2120	
1971	1	2413	
1972	1	2817	
1973	1	2698	
1974	1	2154	
1975	1	1468	
1976	1	1368	
1977	1	1251	
1978	1	1180	
1979	1	1288	
1980	1	1432	
1981	1	1652	
1982	1	1924	
1983	1	2076	
1984	1	2372	
1985	1	2522	
1986	1	2431	
1987	1	2537	
1988	1	2812	
1989	1	2908	
1990	1	2782	
1991	1	2215	
1992	1	1643	
1993	1	1361	
1994	1	1988	
1995	1	2620	
1996	1	2459	
1997	1	2043	
1998	1	1879	
1999	1	1678	
2000	1	1351	
2001	1	1194	
2002	1	1444	
2003	1	1675	
2004	1	2011	
2005	1	2478	
2006	1	2701	
2007	1	2351	
2008	1	2099	
2009	1	2053	
2010	1	2179	
2011	1	2017	
2012	1	1799	
2013	1	1732	
2014	1	1869	
2015	1	2159	
2016	1	2237	
2017	1	2264	
2018	1	2150	
2019	1	2115	
2020	1	2123	
2021	1	2085	
2022	1	2242	
2023	1	2345	
2024	1	2372	
2025	1	2502	
2026	1	2420	
2027	1	2347	
2028	1	2137	
2029	1	2084	
2030	1	2332	
2031	1	1822	
2032	1	1298	
2033	1	1280	
2034	1	1511	
2035	1	1610	
2036	1	1787	
2037	1	1778	
2038	1	1922	
2039	1	2088	
2040	1	2221	
2041	1	2200	
2042	1	2184	
2043	1	2247	
2044	1	2264	
2045	1	2714	
2046	1	3482	
2047	1	3126	
2048	1	2358	
2049	1	1668	
2050	1	1277	
2051	1	930	
2052	1	975	
2053	1	1516	
2054	1	2043	
2055	1	2497	
2056	1	2643	
2057	1	2509	
2058	1	2294	
2059	1	1790	
2060	1	1461	
2061	1	1506	
2062	1	2273	
2063	1	2612	
2064	1	2372	
2065	1	3150	
2066	1	3063	
2067	1	2429	
2068	1	1721	
2069	1	910	
2070	1	430	
2071	1	471	
2072	1	1019	
2073	1	1457	
2074	1	2264	
2075	1	2667	
2076	1	2549	
2077	1	2272	
2078	1	2141	
2079	1	1840	
2080	1	1982	
2081	1	1888	
2082	1	1941	
2083	1	2156	
2084	1	2418	
2085	1	2512	
2086	1	2497	
2087	1	2361	
2088	1	2278	
2089	1	2156	
2090	1	2366	
2091	1	2483	
2092	1	2265	
2093	1	1810	
2094	1	1805	
2095	1	2078	
2096	1	2320	
2097	1	2686	
2098	1	2660	
2099	1	2214	
2100	1	1980	
2101	1	2020	
2102	1	1952	
2103	1	1685	
2104	1	1636	
2105	1	1765	
2106	1	1759	
2107	1	1814	
2108	1	2093	
2109	1	2746	
2110	1	2538	
2111	1	2088	
2112	1	1809	
2113	1	1666	
2114	1	1506	
2115	1	1458	
2116	1	1670	
2117	1	1843	
2118	1	1900	
2119	1	1976	
2120	1	2263	
2121	1	2518	
2122	1	2411	
2123	1	2175	
2124	1	2035	
2125	1	2053	
2126	1	2019	
2127	1	2061	
2128	1	2154	
2129	1	2318	
2130	1	2549	
2131	1	2642	
2132	1	2240	
2133	1	1753	
2134	1	1932	
2135	1	2171	
2136	1	2143	
2137	1	1815	
2138	1	1431	
2139	1	1407	
2140	1	1193	
2141	1	1004	
2142	1	1322	
2143	1	2101	
2144	1	2648	
2145	1	2695	
2146	1	2473	
2147	1	2507	
2148	1	2386	
2149	1	2260	
2150	1	2057	
2151	1	1666	
2152	1	1588	
2153	1	1972	
2154	1	2440	
2155	1	2656	
2156	1	3128	
2157	1	3091	
2158	1	2488	
2159	1	2008	
2160	1	1861	
2161	1	1756	
2162	1	1605	
2163	1	1223	
2164	1	1250	
2165	1	1450	
2166	1	1541	
2167	1	1842	
2168	1	2458	
2169	1	2553	
2170	1	2431	
2171	1	2364	
2172	1	2336	
2173	1	2270	
2174	1	2013	
2175	1	1554	
2176	1	1588	
2177	1	1558	
2178	1	1706	
2179	1	1845	
2180	1	2033	
2181	1	2174	
2182	1	2405	
2183	1	2678	
2184	1	2644	
2185	1	2183	
2186	1	1753	
2187	1	1700	
2188	1	2059	
2189	1	2104	
2190	1	2128	
2191	1	2126	
2192	1	3116	
2193	1	3581	
2194	1	3139	
2195	1	2204	
2196	1	1401	
2197	1	1205	
2198	1	1443	
2199	1	1534	
2200	1	1537	
2201	1	1354	
2202	1	1444	
2203	1	1642	
2204	1	1518	
2205	1	1409	
2206	1	1780	
2207	1	2332	
2208	1	2804	
2209	1	2707	
2210	1	2246	
2211	1	1767	
2212	1	1679	
2213	1	1889	
2214	1	2070	
2215	1	2141	
2216	1	2362	
2217	1	2396	
2218	1	2390	
2219	1	2587	
2220	1	3287	
2221	1	3030	
2222	1	2731	
2223	1	2392	
2224	1	2218	
2225	1	1947	
2226	1	1701	
2227	1	1227	
2228	1	1651	
2229	1	1886	
2230	1	1524	
2231	1	1095	
2232	1	943	
2233	1	929	
2234	1	1093	
2235	1	1534	
2236	1	2036	
2237	1	2796	
2238	1	3912	
2239	1	3919	
2240	1	3684	
2241	1	2180	
2242	1	1220	
2243	1	806	
2244	1	768	
2245	1	693	
2246	1	1203	
2247	1	1900	
2248	1	2483	
2249	1	2700	
2250	1	2614	
2251	1	2831	
2252	1	3356	
2253	1	3114	
2254	1	2401	
2255	1	1808	
2256	1	1410	
2257	1	1212	
2258	1	1146	
2259	1	1452	
2260	1	1901	
2261	1	2168	
2262	1	2179	
2263	1	2008	
2264	1	2170	
2265	1	2474	
2266	1	2595	
2267	1	2492	
2268	1	2326	
2269	1	2156	
2270	1	2066	
2271	1	1978	
2272	1	1847	
2273	1	2058	
2274	1	2001	
2275	1	2138	
2276	1	2531	
2277	1	3143	
2278	1	3252	
2279	1	2749	
2280	1	2123	
2281	1	1670	
2282	1	1123	
2283	1	619	
2284	1	344	
2285	1	795	
2286	1	1234	
2287	1	1444	
2288	1	1646	
2289	1	2046	
2290	1	2530	
2291	1	2775	
2292	1	2910	
2293	1	2874	
2294	1	2851	
2295	1	3331	
2296	1	3378	
2297	1	2390	
2298	1	1719	
2299	1	2569	
2300	1	3024	
2301	1	2460	
2302	1	1246	
2303	1	391	
2304	1	100	
2305	1	341	
2306	1	658	
2307	1	1137	
2308	1	1996	
2309	1	2502	
2310	1	2542	
2311	1	2405	
2312	1	2311	
2313	1	2410	
2314	1	2928	
2315	1	3523	
2316	1	3529	
2317	1	2891	
2318	1	2344	
2319	1	1899	
2320	1	1775	
2321	1	1396	
2322	1	1234	
2323	1	1240	
2324	1	1398	
2325	1	1189	
2326	1	1032	
2327	1	1378	
2328	1	1684	
2329	1	2047	
2330	1	2536	
2331	1	2859	
2332	1	3219	
2333	1	3150	
2334	1	2747	
2335	1	2172	
2336	1	1744	
2337	1	1490	
2338	1	1451	
2339	1	1654	
2340	1	2032	
2341	1	2468	
2342	1	2742	
2343	1	3083	
2344	1	2973	
2345	1	2738	
2346	1	2670	
2347	1	2634	
2348	1	1953	
2349	1	1053	
2350	1	619	
2351	1	687	
2352	1	717	
2353	1	983	
2354	1	1558	
2355	1	1981	
2356	1	2548	
2357	1	3002	
2358	1	2850	
2359	1	2465	
2360	1	2017	
2361	1	1907	
2362	1	2178	
2363	1	2053	
2364	1	1960	
2365	1	1870	
2366	1	2190	
2367	1	2698	
2368	1	2782	
2369	1	2479	
2370	1	2176	
2371	1	1862	
2372	1	1733	
2373	1	1631	
2374	1	1924	
2375	1	1775	
2376	1	1848	
2377	1	2274	
2378	1	2214	
2379	1	2208	
2380	1	2199	
2381	1	1979	
2382	1	2068	
2383	1	2184	
2384	1	2287	
2385	1	1708	
2386	1	1373	
2387	1	1334	
2388	1	1628	
2389	1	1763	
2390	1	1815	
2391	1	2687	
2392	1	2900	
2393	1	2456	
2394	1	1867	
2395	1	2049	
2396	1	2349	
2397	1	1796	
2398	1	1836	
2399	1	2180	
2400	1	2487	
2401	1	2161	
2402	1	1865	
2403	1	2746	
2404	1	2967	
2405	1	2948	
2406	1	2283	
2407	1	1372	
2408	1	836	
2409	1	808	
2410	1	1021	
2411	1	1420	
2412	1	2027	
2413	1	2742	
2414	1	2740	
2415	1	1754	
2416	1	1408	
2417	1	1453	
2418	1	1615	
2419	1	1993	
2420	1	1965	
2421	1	2050	
2422	1	2350	
2423	1	2382	
2424	1	2293	
2425	1	2363	
2426	1	2591	
2427	1	2617	
2428	1	2512	
2429	1	2446	
2430	1	2420	
2431	1	2596	
2432	1	2918	
2433	1	2739	
2434	1	2276	
2435	1	1651	
2436	1	1428	
2437	1	1199	
2438	1	1433	
2439	1	1686	
2440	1	1876	
2441	1	1928	
2442	1	1864	
2443	1	1922	
2444	1	1962	
2445	1	1865	
2446	1	2106	
2447	1	2189	
2448	1	2133	
2449	1	2052	
2450	1	2116	
2451	1	2212	
2452	1	2084	
2453	1	2175	
2454	1	2657	
2455	1	2861	
2456	1	2767	
2457	1	2629	
2458	1	2008	
2459	1	1299	
2460	1	903	
2461	1	997	
2462	1	1314	
2463	1	2091	
2464	1	2975	
2465	1	3054	
2466	1	2999	
2467	1	2063	
2468	1	1224	
2469	1	1042	
2470	1	1051	
2471	1	1089	
2472	1	1591	
2473	1	1765	
2474	1	1932	
2475	1	1950	
2476	1	2626	
2477	1	2712	
2478	1	2420	
2479	1	1941	
2480	1	1861	
2481	1	2478	
2482	1	2870	
2483	1	2769	
2484	1	2315	
2485	1	1921	
2486	1	1667	
2487	1	1359	
2488	1	1623	
2489	1	2117	
2490	1	2271	
2491	1	2256	
2492	1	2172	
2493	1	2157	
2494	1	2428	
2495	1	2974	
2496	1	3000	
2497	1	2993	
2498	1	2483	
2499	1	1720	
2500	1	1002	
2501	1	669	
2502	1	1391	
2503	1	1718	
2504	1	1601	
2505	1	1746	
2506	1	1880	
2507	1	1928	
2508	1	2070	
2509	1	2179	
2510	1	2254	
2511	1	2348	
2512	1	2389	
2513	1	2431	
2514	1	2412	
2515	1	2598	
2516	1	2278	
2517	1	2154	
2518	1	2118	
2519	1	1937	
2520	1	1705	
2521	1	1501	
2522	1	1825	
2523	1	2756	
2524	1	2753	
2525	1	2248	
2526	1	1702	
2527	1	1468	
2528	1	1556	
2529	1	1631	
2530	1	1622	
2531	1	1831	
2532	1	2052	
2533	1	1955	
2534	1	2373	
2535	1	3389	
2536	1	3659	
2537	1	3491	
2538	1	3086	
2539	1	1430	
2540	1	615	
2541	1	420	
2542	1	262	
2543	1	484	
2544	1	1270	
2545	1	1541	
2546	1	1713	
2547	1	2131	
2548	1	2496	
2549	1	2585	
2550	1	2540	
2551	1	2569	
2552	1	2650	
2553	1	2677	
2554	1	2554	
2555	1	2460	
2556	1	2316	
2557	1	2108	
2558	1	2049	
2559	1	2026	
2560	1	2086	
2561	1	2130	
2562	1	2135	
2563	1	2293	
2564	1	2424	
2565	1	2212	
2566	1	1970	
2567	1	1954	
2568	1	1706	
2569	1	1667	
2570	1	1645	
2571	1	1949	
2572	1	2492	
2573	1	2348	
2574	1	2272	
2575	1	1988	
2576	1	1763	
2577	1	2015	
2578	1	1963	
2579	1	1998	
2580	1	2597	
2581	1	3041	
2582	1	2399	
2583	1	1416	
2584	1	717	
2585	1	796	
2586	1	1554	
2587	1	1863	
2588	1	2320	
2589	1	2634	
2590	1	3045	
2591	1	2658	
2592	1	2264	
2593	1	2012	
2594	1	1886	
2595	1	1393	
2596	1	1208	
2597	1	1588	
2598	1	2331	
2599	1	2665	
2600	1	2335	
2601	1	2215	
2602	1	2203	
2603	1	2047	
2604	1	1904	
2605	1	2029	
2606	1	2028	
2607	1	1834	
2608	1	1655	
2609	1	1995	
2610	1	2080	
2611	1	2055	
2612	1	1856	
2613	1	1798	
2614	1	1842	
2615	1	2099	
2616	1	2388	
2617	1	2520	
2618	1	2369	
2619	1	2171	
2620	1	2050	
2621	1	1959	
2622	1	2087	
2623	1	2075	
2624	1	2083	
2625	1	2162	
2626	1	2215	
2627	1	2149	
2628	1	1967	
2629	1	2013	
2630	1	2527	
2631	1	2599	
2632	1	2495	
2633	1	2195	
2634	1	1760	
2635	1	1638	
2636	1	1508	
2637	1	1568	
2638	1	1462	
2639	1	1672	
2640	1	1978	
2641	1	2247	
2642	1	2360	
2643	1	2485	
2644	1	2863	
2645	1	2913	
2646	1	2533	
2647	1	1908	
2648	1	1676	
2649	1	1665	
2650	1	1629	
2651	1	1586	
2652	1	1644	
2653	1	1645	
2654	1	1629	
2655	1	1552	
2656	1	1749	
2657	1	1957	
2658	1	2476	
2659	1	2941	
2660	1	3194	
2661	1	2948	
2662	1	2428	
2663	1	1921	
2664	1	1748	
2665	1	1524	
2666	1	895	
2667	1	1146	
2668	1	1630	
2669	1	1689	
2670	1	1875	
2671	1	2072	
2672	1	2199	
2673	1	2363	
2674	1	2446	
2675	1	2442	
2676	1	2814	
2677	1	3236	
2678	1	2862	
2679	1	1989	
2680	1	1247	
2681	1	1384	
2682	1	1932	
2683	1	2487	
2684	1	2238	
2685	1	1808	
2686	1	1597	
2687	1	1556	
2688	1	1449	
2689	1	1763	
2690	1	2126	
2691	1	2170	
2692	1	2197	
2693	1	2342	
2694	1	2427	
2695	1	2366	
2696	1	2314	
2697	1	2292	
2698	1	2308	
2699	1	2508	
2700	1	2398	
2701	1	2196	
2702	1	1884	
2703	1	1519	
2704	1	1368	
2705	1	1408	
2706	1	1846	
2707	1	1743	
2708	1	1910	
2709	1	1995	
2710	1	2322	
2711	1	2251	
2712	1	2101	
2713	1	2134	
2714	1	2144	
2715	1	2088	
2716	1	2084	
2717	1	1934	
2718	1	2106	
2719	1	2500	
2720	1	2667	
2721	1	2805	
2722	1	2646	
2723	1	2213	
2724	1	1804	
2725	1	1740	
2726	1	1823	
2727	1	1942	
2728	1	1898	
2729	1	1809	
2730	1	1589	
2731	1	1462	
2732	1	1565	
2733	1	1630	
2734	1	1538	
2735	1	1601	
2736	1	1848	
2737	1	2090	
2738	1	2199	
2739	1	2220	
2740	1	2363	
2741	1	2534	
2742	1	2574	
2743	1	2476	
2744	1	2356	
2745	1	2467	
2746	1	2946	
2747	1	2614	
2748	1	1973	
2749	1	1689	
2750	1	1448	
2751	1	1418	
2752	1	1491	
2753	1	1823	
2754	1	1969	
2755	1	2051	
2756	1	2338	
2757	1	2430	
2758	1	2279	
2759	1	2039	
2760	1	1746	
2761	1	1724	
2762	1	1626	
2763	1	1795	
2764	1	2353	
2765	1	2652	
2766	1	2284	
2767	1	1888	
2768	1	1795	
2769	1	1946	
2770	1	2793	
2771	1	3530	
2772	1	3103	
2773	1	2303	
2774	1	1424	
2775	1	909	
2776	1	690	
2777	1	989	
2778	1	1602	
2779	1	1725	
2780	1	1916	
2781	1	2007	
2782	1	1938	
2783	1	2083	
2784	1	2312	
2785	1	2484	
2786	1	2509	
2787	1	2490	
2788	1	2443	
2789	1	2478	
2790	1	2408	
2791	1	2416	
2792	1	2526	
2793	1	2460	
2794	1	2189	
2795	1	1793	
2796	1	1386	
2797	1	1365	
2798	1	1509	
2799	1	1657	
2800	1	2008	
2801	1	2360	
2802	1	2685	
2803	1	3488	
2804	1	3527	
2805	1	3294	
2806	1	1746	
2807	1	711	
2808	1	480	
2809	1	543	
2810	1	781	
2811	1	1495	
2812	1	2301	
2813	1	2274	
2814	1	1943	
2815	1	1684	
2816	1	1696	
2817	1	2032	
2818	1	2540	
2819	1	2769	
2820	1	2804	
2821	1	2648	
2822	1	2371	
2823	1	2079	
2824	1	1998	
2825	1	2028	
2826	1	2071	
2827	1	1908	
2828	1	1856	
2829	1	2422	
2830	1	2927	
2831	1	2737	
2832	1	2356	
2833	1	2113	
2834	1	1825	
2835	1	1506	
2836	1	1246	
2837	1	1293	
2838	1	1350	
2839	1	1604	
2840	1	1952	
2841	1	1999	
2842	1	1959	
2843	1	1987	
2844	1	2116	
2845	1	3019	
2846	1	3207	
2847	1	2534	
2848	1	1862	
2849	1	1506	
2850	1	1460	
2851	1	1650	
2852	1	1807	
2853	1	2125	
2854	1	2373	
2855	1	2317	
2856	1	2152	
2857	1	2046	
2858	1	1908	
2859	1	1994	
2860	1	2175	
2861	1	2368	
2862	1	2586	
2863	1	2450	
2864	1	2250	
2865	1	2259	
2866	1	2272	
2867	1	2029	
2868	1	2000	
2869	1	1783	
2870	1	1666	
2871	1	1543	
2872	1	1772	
2873	1	2325	
2874	1	2364	
2875	1	2126	
2876	1	1883	
2877	1	1772	
2878	1	1888	
2879	1	1811	
2880	1	1745	
2881	1	1754	
2882	1	1872	
2883	1	2027	
2884	1	2094	
2885	1	2157	
2886	1	2652	
2887	1	2670	
2888	1	2092	
2889	1	1517	
2890	1	1378	
2891	1	1696	
2892	1	2150	
2893	1	2367	
2894	1	2523	
2895	1	2618	
2896	1	2649	
2897	1	2574	
2898	1	2338	
2899	1	1902	
2900	1	1533	
2901	1	1518	
2902	1	1587	
2903	1	1666	
2904	1	1984	
2905	1	2291	
2906	1	2280	
2907	1	2193	
2908	1	2107	
2909	1	2103	
2910	1	2041	
2911	1	2058	
2912	1	1958	
2913	1	1936	
2914	1	2243	
2915	1	2364	
2916	1	2214	
2917	1	1897	
2918	1	1361	
2919	1	1314	
2920	1	1568	
2921	1	1848	
2922	1	2059	
2923	1	2246	
2924	1	2370	
2925	1	2368	
2926	1	2339	
2927	1	2397	
2928	1	2444	
2929	1	2391	
2930	1	2201	
2931	1	2062	
2932	1	1930	
2933	1	1664	
2934	1	1617	
2935	1	1791	
2936	1	2010	
2937	1	2133	
2938	1	2076	
2939	1	2215	
2940	1	2353	
2941	1	2285	
2942	1	2778	
2943	1	3048	
2944	1	2533	
2945	1	1726	
2946	1	1195	
2947	1	964	
2948	1	1307	
2949	1	1740	
2950	1	1938	
2951	1	2106	
2952	1	2337	
2953	1	2554	
2954	1	2646	
2955	1	2565	
2956	1	2362	
2957	1	2000	
2958	1	1699	
2959	1	1510	
2960	1	1583	
2961	1	1765	
2962	1	1798	
2963	1	1897	
2964	1	2021	
2965	1	1866	
2966	1	2151	
2967	1	2423	
2968	1	2433	
2969	1	2168	
2970	1	2186	
2971	1	2495	
2972	1	2423	
2973	1	2160	
2974	1	1842	
2975	1	1693	
2976	1	1655	
2977	1	1641	
2978	1	2143	
2979	1	2547	
2980	1	2869	
2981	1	2743	
2982	1	2406	
2983	1	2510	
2984	1	2116	
2985	1	1385	
2986	1	781	
2987	1	796	
2988	1	1084	
2989	1	1633	
2990	1	1904	
2991	1	2263	
2992	1	2357	
2993	1	2357	
2994	1	2351	
2995	1	2423	
2996	1	2296	
2997	1	2135	
2998	1	1949	
2999	1	1950	
3000	1	2080	
3001	1	1954	
3002	1	2312	
3003	1	2785	
3004	1	2709	
3005	1	2404	
3006	1	1998	
3007	1	1638	
3008	1	1498	
3009	1	1561	
3010	1	1711	
3011	1	1882	
3012	1	2074	
3013	1	2315	
3014	1	2390	
3015	1	2429	
3016	1	2343	
3017	1	2142	
3018	1	1896	
3019	1	1823	
3020	1	2030	
3021	1	1986	
3022	1	1957	
3023	1	1986	
3024	1	2060	
3025	1	2727	
3026	1	2906	
3027	1	2488	
3028	1	2007	
3029	1	1580	
3030	1	1350	
3031	1	1393	
3032	1	1371	
3033	1	1734	
3034	1	2045	
3035	1	2150	
3036	1	2594	
3037	1	2635	
3038	1	2279	
3039	1	1735	
3040	1	1578	
3041	1	1575	
3042	1	1811	
3043	1	2039	
3044	1	2254	
3045	1	2622	
3046	1	2484	
3047	1	2287	
3048	1	2150	
3049	1	1993	
3050	1	1904	
3051	1	1641	
3052	1	1676	
3053	1	2035	
3054	1	2350	
3055	1	2590	
3056	1	2378	
3057	1	2190	
3058	1	2108	
3059	1	1873	
3060	1	1715	
3061	1	1736	
3062	1	1813	
3063	1	1929	
3064	1	2215	
3065	1	2155	
3066	1	2077	
3067	1	2005	
3068	1	2056	
3069	1	2479	
3070	1	2476	
3071	1	2341	
3072	1	1978	
3073	1	1853	
3074	1	1678	
3075	1	1654	
3076	1	1750	
3077	1	2056	
3078	1	2269	
3079	1	2336	
3080	1	2374	
3081	1	2228	
3082	1	1898	
3083	1	1662	
3084	1	1552	
3085	1	1571	
3086	1	1598	
3087	1	1961	
3088	1	2424	
3089	1	3265	
3090	1	3406	
3091	1	3011	
3092	1	2463	
3093	1	1619	
3094	1	1031	
3095	1	810	
3096	1	913	
3097	1	1416	
3098	1	1767	
3099	1	1932	
3100	1	2119	
3101	1	2191	
3102	1	2143	
3103	1	2266	
3104	1	2347	
3105	1	2441	
3106	1	2928	
3107	1	2814	
3108	1	2272	
3109	1	1759	
3110	1	1469	
3111	1	1531	
3112	1	2007	
3113	1	2218	
3114	1	2241	
3115	1	2217	
3116	1	2298	
3117	1	2208	
3118	1	2118	
3119	1	2066	
3120	1	1969	
3121	1	1954	
3122	1	2169	
3123	1	2265	
3124	1	2358	
3125	1	2212	
3126	1	2195	
3127	1	1930	
3128	1	1684	
3129	1	1412	
3130	1	1450	
3131	1	1712	
3132	1	1924	
3133	1	2163	
3134	1	2206	
3135	1	2459	
3136	1	2627	
3137	1	2899	
3138	1	2673	
3139	1	2230	
3140	1	1855	
3141	1	1551	
3142	1	1999	
3143	1	1907	
3144	1	1594	
3145	1	1283	
3146	1	1248	
3147	1	1507	
3148	1	1962	
3149	1	2032	
3150	1	1807	
3151	1	1890	
3152	1	2094	
3153	1	2137	
3154	1	2322	
3155	1	2578	
3156	1	2788	
3157	1	2774	
3158	1	2491	
3159	1	2193	
3160	1	1932	
3161	1	1730	
3162	1	1651	
3163	1	1856	
3164	1	2079	
3165	1	2053	
3166	1	2035	
3167	1	1951	
3168	1	1850	
3169	1	1915	
3170	1	2012	
3171	1	2153	
3172	1	2156	
3173	1	2218	
3174	1	2204	
3175	1	2249	
3176	1	2268	
3177	1	2231	
3178	1	2105	
3179	1	2130	
3180	1	2082	
3181	1	2094	
3182	1	2094	
3183	1	2082	
3184	1	1847	
3185	1	1752	
3186	1	1787	
3187	1	1850	
3188	1	1891	
3189	1	2101	
3190	1	2216	
3191	1	2282	
3192	1	2465	
3193	1	2464	
3194	1	2206	
3195	1	1989	
3196	1	1777	
3197	1	1748	
3198	1	1747	
3199	1	1852	
3200	1	2449	
3201	1	2878	
3202	1	2706	
3203	1	2186	
3204	1	1708	
3205	1	1362	
3206	1	1516	
3207	1	1734	
3208	1	2160	
3209	1	2221	
3210	1	1900	
3211	1	1606	
3212	1	1403	
3213	1	1425	
3214	1	1713	
3215	1	1955	
3216	1	2149	
3217	1	2236	
3218	1	2274	
3219	1	2293	
3220	1	2278	
3221	1	2271	
3222	1	2261	
3223	1	2188	
3224	1	2155	
3225	1	2162	
3226	1	2191	
3227	1	2192	
3228	1	2172	
3229	1	2190	
3230	1	2223	
3231	1	2176	
3232	1	2138	
3233	1	2200	
3234	1	2314	
3235	1	2407	
3236	1	2500	
3237	1	2302	
3238	1	1897	
3239	1	1421	
3240	1	1264	
3241	1	1466	
3242	1	1622	
3243	1	1887	
3244	1	2026	
3245	1	2022	
3246	1	2044	
3247	1	2089	
3248	1	2122	
3249	1	2125	
3250	1	2143	
3251	1	2157	
3252	1	2168	
3253	1	2195	
3254	1	2181	
3255	1	2146	
3256	1	2114	
3257	1	2081	
3258	1	2098	
3259	1	2073	
3260	1	2023	
3261	1	1998	
3262	1	1997	
3263	1	2035	
3264	1	2147	
3265	1	2747	
3266	1	3027	
3267	1	2621	
3268	1	2085	
3269	1	1604	
3270	1	1241	
3271	1	1246	
3272	1	1476	
3273	1	1561	
3274	1	1717	
3275	1	1870	
3276	1	2038	
3277	1	2125	
3278	1	2136	
3279	1	2084	
3280	1	2106	
3281	1	2220	
3282	1	2291	
3283	1	2355	
3284	1	2393	
3285	1	2298	
3286	1	2215	
3287	1	2180	
3288	1	2027	
3289	1	1873	
3290	1	2111	
3291	1	2217	
3292	1	2353	
3293	1	2246	
3294	1	2141	
3295	1	1915	
3296	1	1859	
3297	1	1811	
3298	1	1856	
3299	1	1803	
3300	1	1807	
3301	1	1890	
3302	1	1955	
3303	1	2211	
3304	1	2239	
3305	1	2244	
3306	1	2296	
3307	1	2197	
3308	1	2003	
3309	1	1746	
3310	1	1588	
3311	1	1650	
3312	1	1841	
3313	1	2050	
3314	1	2176	
3315	1	2450	
3316	1	2518	
3317	1	2809	
3318	1	2708	
3319	1	2295	
3320	1	1758	
3321	1	1386	
3322	1	1268	
3323	1	1561	
3324	1	1565	
3325	1	1771	
3326	1	2002	
3327	1	2096	
3328	1	2117	
3329	1	2186	
3330	1	2221	
3331	1	2279	
3332	1	2247	
3333	1	2256	
3334	1	2292	
3335	1	2308	
3336	1	2217	
3337	1	2159	
3338	1	2126	
3339	1	2094	
3340	1	2002	
3341	1	2019	
3342	1	2052	
3343	1	2110	
3344	1	2322	
3345	1	2349	
3346	1	2210	
3347	1	1972	
3348	1	1703	
3349	1	1653	
3350	1	1789	
3351	1	1951	
3352	1	2032	
3353	1	2022	
3354	1	2045	
3355	1	2317	
3356	1	2316	
3357	1	2045	
3358	1	1719	
3359	1	1948	
3360	1	2536	
3361	1	2381	
3362	1	1876	
3363	1	1555	
3364	1	1539	
3365	1	1671	
3366	1	1922	
3367	1	1968	
3368	1	2049	
3369	1	2072	
3370	1	2090	
3371	1	2146	
3372	1	2168	
3373	1	2136	
3374	1	2135	
3375	1	2129	
3376	1	2155	
3377	1	2231	
3378	1	2268	
3379	1	2229	
3380	1	2150	
3381	1	2014	
3382	1	1902	
3383	1	1940	
3384	1	2028	
3385	1	2070	
3386	1	2206	
3387	1	2259	
3388	1	2200	
3389	1	2009	
3390	1	1923	
3391	1	2009	
3392	1	2274	
3393	1	2256	
3394	1	2142	
3395	1	2009	
3396	1	1958	
3397	1	1871	
3398	1	2179	
3399	1	2168	
3400	1	2102	
3401	1	2084	
3402	1	1929	
3403	1	1864	
3404	1	2143	
3405	1	1953	
3406	1	1516	
3407	1	1219	
3408	1	1418	
3409	1	1557	
3410	1	2064	
3411	1	2493	
3412	1	2602	
3413	1	2708	
3414	1	2708	
3415	1	2444	
3416	1	2083	
3417	1	1757	
3418	1	1602	
3419	1	1673	
3420	1	1783	
3421	1	1917	
3422	1	2138	
3423	1	2275	
3424	1	2523	
3425	1	2907	
3426	1	3055	
3427	1	2798	
3428	1	2239	
3429	1	1618	
3430	1	1305	
3431	1	1275	
3432	1	1303	
3433	1	1409	
3434	1	1495	
3435	1	1803	
3436	1	2025	
3437	1	1942	
3438	1	2037	
3439	1	2275	
3440	1	2390	
3441	1	2471	
3442	1	2424	
3443	1	2306	
3444	1	2231	
3445	1	2292	
3446	1	2567	
3447	1	2338	
3448	1	2002	
3449	1	1612	
3450	1	1449	
3451	1	1594	
3452	1	1944	
3453	1	2134	
3454	1	2107	
3455	1	2273	
3456	1	2412	
3457	1	2334	
3458	1	2150	
3459	1	2031	
3460	1	1862	
3461	1	1800	
3462	1	1764	
3463	1	1753	
3464	1	1870	
3465	1	2135	
3466	1	2167	
3467	1	2164	
3468	1	2173	
3469	1	2170	
3470	1	2120	
3471	1	2065	
3472	1	1974	
3473	1	2112	
3474	1	2186	
3475	1	2153	
3476	1	2107	
3477	1	2513	
3478	1	2740	
3479	1	2596	
3480	1	2068	
3481	1	1582	
3482	1	1310	
3483	1	1375	
3484	1	1578	
3485	1	1704	
3486	1	1903	
3487	1	2196	
3488	1	2372	
3489	1	2780	
3490	1	2639	
3491	1	2359	
3492	1	1857	
3493	1	1609	
3494	1	1619	
3495	1	1718	
3496	1	1805	
3497	1	1976	
3498	1	1925	
3499	1	1922	
3500	1	1980	
3501	1	2113	
3502	1	2190	
3503	1	2210	
3504	1	2157	
3505	1	2027	
3506	1	2000	
3507	1	1922	
3508	1	2014	
3509	1	2143	
3510	1	2235	
3511	1	2272	
3512	1	2287	
3513	1	2339	
3514	1	2228	
3515	1	2164	
3516	1	2309	
3517	1	2332	
3518	1	2319	
3519	1	2251	
3520	1	2039	
3521	1	1902	
3522	1	1831	
3523	1	1587	
3524	1	1259	
3525	1	1356	
3526	1	1668	
3527	1	1851	
3528	1	2077	
3529	1	2224	
3530	1	2268	
3531	1	2303	
3532	1	2466	
3533	1	2403	
3534	1	2159	
3535	1	2114	
3536	1	1960	
3537	1	1702	
3538	1	1762	
3539	1	1902	
3540	1	1962	
3541	1	2041	
3542	1	2184	
3543	1	2546	
3544	1	2638	
3545	1	2740	
3546	1	2445	
3547	1	2091	
3548	1	1789	
3549	1	1773	
3550	1	1755	
3551	1	1900	
3552	1	1911	
3553	1	1856	
3554	1	1836	
3555	1	1916	
3556	1	1912	
3557	1	1975	
3558	1	2027	
3559	1	1877	
3560	1	1737	
3561	1	2015	
3562	1	2140	
3563	1	2253	
3564	1	2494	
3565	1	2463	
3566	1	2187	
3567	1	2026	
3568	1	2098	
3569	1	2336	
3570	1	2265	
3571	1	2038	
3572	1	1997	
3573	1	1824	
3574	1	1711	
3575	1	1893	
3576	1	1983	
3577	1	1884	
3578	1	1801	
3579	1	1676	
3580	1	1594	
3581	1	1688	
3582	1	2016	
3583	1	2220	
3584	1	2274	
3585	1	2491	
3586	1	2520	
3587	1	2443	
3588	1	2467	
3589	1	2535	
3590	1	2450	
3591	1	2072	
3592	1	1803	
3593	1	1704	
3594	1	1680	
3595	1	1675	
3596	1	1789	
3597	1	1887	
3598	1	1798	
3599	1	1821	
3600	1	1980	
3601	1	2129	
3602	1	2276	
3603	1	2271	
3604	1	2272	
3605	1	2356	
3606	1	2388	
3607	1	2340	
3608	1	2274	
3609	1	2193	
3610	1	2321	
3611	1	2207	
3612	1	2082	
3613	1	1941	
3614	1	1804	
3615	1	1505	
3616	1	1510	
3617	1	1651	
3618	1	1871	
3619	1	2082	
3620	1	2191	
3621	1	1949	
3622	1	1763	
3623	1	1704	
3624	1	1851	
3625	1	2058	
3626	1	2172	
3627	1	2272	
3628	1	2302	
3629	1	2300	
3630	1	2228	
3631	1	2183	
3632	1	2250	
3633	1	2597	
3634	1	2742	
3635	1	2601	
3636	1	2300	
3637	1	2186	
3638	1	1888	
3639	1	1680	
3640	1	1564	
3641	1	1781	
3642	1	1771	
3643	1	1518	
3644	1	1504	
3645	1	1619	
3646	1	2182	
3647	1	2469	
3648	1	2544	
3649	1	2409	
3650	1	2178	
3651	1	1939	
3652	1	1709	
3653	1	1540	
3654	1	1375	
3655	1	1559	
3656	1	1945	
3657	1	2213	
3658	1	2422	
3659	1	2438	
3660	1	2356	
3661	1	2225	
3662	1	2084	
3663	1	2024	
3664	1	2010	
3665	1	2030	
3666	1	2073	
3667	1	2355	
3668	1	2476	
3669	1	2461	
3670	1	2217	
3671	1	1936	
3672	1	2004	
3673	1	2230	
3674	1	2240	
3675	1	2097	
3676	1	1877	
3677	1	1725	
3678	1	1732	
3679	1	1607	
3680	1	1560	
3681	1	1444	
3682	1	1669	
3683	1	2149	
3684	1	2482	
3685	1	2622	
3686	1	2624	
3687	1	2486	
3688	1	2161	
3689	1	1891	
3690	1	1775	
3691	1	1798	
3692	1	1860	
3693	1	1929	
3694	1	2065	
3695	1	2171	
3696	1	2064	
3697	1	2028	
3698	1	2110	
3699	1	2146	
3700	1	2049	
3701	1	2069	
3702	1	2156	
3703	1	2178	
3704	1	2121	
3705	1	2064	
3706	1	2042	
3707	1	2046	
3708	1	2388	
3709	1	2846	
3710	1	2800	
3711	1	2354	
3712	1	2022	
3713	1	1854	
3714	1	1676	
3715	1	1460	
3716	1	1235	
3717	1	1269	
3718	1	1631	
3719	1	1985	
3720	1	2064	
3721	1	2070	
3722	1	2055	
3723	1	2136	
3724	1	1962	
3725	1	1877	
3726	1	2039	
3727	1	2287	
3728	1	2608	
3729	1	2731	
3730	1	2342	
3731	1	1959	
3732	1	1889	
3733	1	1930	
3734	1	1936	
3735	1	2114	
3736	1	2083	
3737	1	1878	
3738	1	1884	
3739	1	2126	
3740	1	2243	
3741	1	2205	
3742	1	2054	
3743	1	1923	
3744	1	1870	
3745	1	1877	
3746	1	1766	
3747	1	1798	
3748	1	1997	
3749	1	2142	
3750	1	2055	
3751	1	1941	
3752	1	1959	
3753	1	2053	
3754	1	2060	
3755	1	2149	
3756	1	2154	
3757	1	2201	
3758	1	2280	
3759	1	2399	
3760	1	2530	
3761	1	2341	
3762	1	2142	
3763	1	1971	
3764	1	1817	
3765	1	1803	
3766	1	1830	
3767	1	1804	
3768	1	1945	
3769	1	2227	
3770	1	2438	
3771	1	2198	
3772	1	2015	
3773	1	2037	
3774	1	2020	
3775	1	2019	
3776	1	1913	
3777	1	1880	
3778	1	2019	
3779	1	2259	
3780	1	2387	
3781	1	2421	
3782	1	2427	
3783	1	1872	
3784	1	1531	
3785	1	1889	
3786	1	2248	
3787	1	2603	
3788	1	2911	
3789	1	2668	
3790	1	2084	
3791	1	1644	
3792	1	1331	
3793	1	1143	
3794	1	1260	
3795	1	1761	
3796	1	1999	
3797	1	1897	
3798	1	1711	
3799	1	1792	
3800	1	1975	
3801	1	2178	
3802	1	2224	
3803	1	2057	
3804	1	2084	
3805	1	2157	
3806	1	2085	
3807	1	2022	
3808	1	2245	
3809	1	2317	
3810	1	2241	
3811	1	2134	
3812	1	2040	
3813	1	1973	
3814	1	2002	
3815	1	1987	
3816	1	1973	
3817	1	2068	
3818	1	2127	
3819	1	2290	
3820	1	2299	
3821	1	2342	
3822	1	2231	
3823	1	2111	
3824	1	2124	
3825	1	2109	
3826	1	2149	
3827	1	2217	
3828	1	2218	
3829	1	1970	
3830	1	1658	
3831	1	1508	
3832	1	1693	
3833	1	1864	
3834	1	1919	
3835	1	1943	
3836	1	1947	
3837	1	1964	
3838	1	2027	
3839	1	2110	
3840	1	2182	
3841	1	2264	
3842	1	2305	
3843	1	2356	
3844	1	2350	
3845	1	2425	
3846	1	2639	
3847	1	2292	
3848	1	1684	
3849	1	1695	
3850	1	2059	
3851	1	2327	
3852	1	2249	
3853	1	2220	
3854	1	1874	
3855	1	1713	
3856	1	1915	
3857	1	1778	
3858	1	1671	
3859	1	1787	
3860	1	2032	
3861	1	2207	
3862	1	2463	
3863	1	2231	
3864	1	2004	
3865	1	1853	
3866	1	1947	
3867	1	2009	
3868	1	2068	
3869	1	2108	
3870	1	2463	
3871	1	2384	
3872	1	2028	
3873	1	1657	
3874	1	1474	
3875	1	1352	
3876	1	1410	
3877	1	1605	
3878	1	1831	
3879	1	2063	
3880	1	2247	
3881	1	2441	
3882	1	2467	
3883	1	2427	
3884	1	2463	
3885	1	2394	
3886	1	2372	
3887	1	2298	
3888	1	2201	
3889	1	2082	
3890	1	1934	
3891	1	1799	
3892	1	1672	
3893	1	1733	
3894	1	1876	
3895	1	2123	
3896	1	2262	
3897	1	2250	
3898	1	2203	
3899	1	2143	
3900	1	2043	
3901	1	1962	
3902	1	1877	
3903	1	1935	
3904	1	2013	
3905	1	2155	
3906	1	2252	
3907	1	2362	
3908	1	2302	
3909	1	1674	
3910	1	1561	
3911	1	1922	
3912	1	2304	
3913	1	2383	
3914	1	2483	
3915	1	2516	
3916	1	2117	
3917	1	1830	
3918	1	1812	
3919	1	1992	
3920	1	2187	
3921	1	2162	
3922	1	1979	
3923	1	1832	
3924	1	1754	
3925	1	1676	
3926	1	1697	
3927	1	1780	
3928	1	2034	
3929	1	2384	
3930	1	2669	
3931	1	2581	
3932	1	2285	
3933	1	2088	
3934	1	1876	
3935	1	1699	
3936	1	1665	
3937	1	1639	
3938	1	1511	
3939	1	1712	
3940	1	2062	
3941	1	2292	
3942	1	2402	
3943	1	2368	
3944	1	2242	
3945	1	2096	
3946	1	2013	
3947	1	1993	
3948	1	1915	
3949	1	1923	
3950	1	1994	
3951	1	2154	
3952	1	2422	
3953	1	2318	
3954	1	2323	
3955	1	1947	
3956	1	1776	
3957	1	1939	
3958	1	1993	
3959	1	2156	
3960	1	2214	
3961	1	2236	
3962	1	2124	
3963	1	1936	
3964	1	1844	
3965	1	2021	
3966	1	2383	
3967	1	2920	
3968	1	2679	
3969	1	2161	
3970	1	1903	
3971	1	1885	
3972	1	1775	
3973	1	1547	
3974	1	1399	
3975	1	1269	
3976	1	1378	
3977	1	1669	
3978	1	1904	
3979	1	2003	
3980	1	2106	
3981	1	2194	
3982	1	2212	
3983	1	2245	
3984	1	2273	
3985	1	2316	
3986	1	2364	
3987	1	2437	
3988	1	2417	
3989	1	2373	
3990	1	2253	
3991	1	2084	
3992	1	2017	
3993	1	2056	
3994	1	2171	
3995	1	1984	
3996	1	1961	
3997	1	2030	
3998	1	2170	
3999	1	2250	
4000	1	2095	
4001	1	1939	
4002	1	1668	
4003	1	1470	
4004	1	1527	
4005	1	1671	
4006	1	1740	
4007	1	1889	
4008	1	2082	
4009	1	2161	
4010	1	2237	
4011	1	2310	
4012	1	2337	
4013	1	2303	
4014	1	2273	
4015	1	2125	
4016	1	1882	
4017	1	1607	
4018	1	2234	
4019	1	2834	
4020	1	2938	
4021	1	2670	
4022	1	2363	
4023	1	2182	
4024	1	1863	
4025	1	1581	
4026	1	1466	
4027	1	1384	
4028	1	1511	
4029	1	1869	
4030	1	2136	
4031	1	2119	
4032	1	1974	
4033	1	1926	
4034	1	1965	
4035	1	2058	
4036	1	2255	
4037	1	1951	
4038	1	1906	
4039	1	1982	
4040	1	2130	
4041	1	2345	
4042	1	2333	
4043	1	2188	
4044	1	2072	
4045	1	1932	
4046	1	1989	
4047	1	2133	
4048	1	2105	
4049	1	2075	
4050	1	2090	
4051	1	2049	
4052	1	2039	
4053	1	2099	
4054	1	2284	
4055	1	2452	
4056	1	2342	
4057	1	2159	
4058	1	1869	
4059	1	1657	
4060	1	1766	
4061	1	2140	
4062	1	2268	
4063	1	2293	
4064	1	2169	
4065	1	1924	
4066	1	1465	
4067	1	1384	
4068	1	1552	
4069	1	1846	
4070	1	2172	
4071	1	2182	
4072	1	2221	
4073	1	2180	
4074	1	2050	
4075	1	1986	
4076	1	1941	
4077	1	1947	
4078	1	2009	
4079	1	2057	
4080	1	2114	
4081	1	2166	
4082	1	2169	
4083	1	2170	
4084	1	2180	
4085	1	2082	
4086	1	2017	
4087	1	2130	
4088	1	2210	
4089	1	2201	
4090	1	2283	
4091	1	2319	
4092	1	2286	
4093	1	2111	
4094	1	1776	
4095	1	1706	
4096	1	1809	
4097	1	2128	
4098	1	2523	
4099	1	2682	
4100	1	2515	
4101	1	2115	
4102	1	1758	
4103	1	1658	
4104	1	1759	
4105	1	1972	
4106	1	2038	
4107	1	1907	
4108	1	1863	
4109	1	1920	
4110	1	2028	
4111	1	2012	
4112	1	1981	
4113	1	1942	
4114	1	2001	
4115	1	2095	
4116	1	2184	
4117	1	2134	
4118	1	1984	
4119	1	1876	
4120	1	2047	
4121	1	2307	
4122	1	1679	
4123	1	1369	
4124	1	1686	
4125	1	2295	
4126	1	2664	
4127	1	2796	
4128	1	2697	
4129	1	2835	
4130	1	2671	
4131	1	2100	
4132	1	1660	
4133	1	1428	
4134	1	1456	
4135	1	1652	
4136	1	1745	
4137	1	1915	
4138	1	2182	
4139	1	2124	
4140	1	1915	
4141	1	1768	
4142	1	1701	
4143	1	1746	
4144	1	1852	
4145	1	1998	
4146	1	2078	
4147	1	2174	
4148	1	2246	
4149	1	2274	
4150	1	2208	
4151	1	2116	
4152	1	2189	
4153	1	2340	
4154	1	2180	
4155	1	2106	
4156	1	2160	
4157	1	2163	
4158	1	2132	
4159	1	2108	
4160	1	2099	
4161	1	2077	
4162	1	1982	
4163	1	2012	
4164	1	2056	
4165	1	2020	
4166	1	1969	
4167	1	1964	
4168	1	1979	
4169	1	2021	
4170	1	2183	
4171	1	2267	
4172	1	2302	
4173	1	2110	
4174	1	1633	
4175	1	1678	
4176	1	1982	
4177	1	2217	
4178	1	2334	
4179	1	2470	
4180	1	2874	
4181	1	2811	
4182	1	2352	
4183	1	1892	
4184	1	1560	
4185	1	1320	
4186	1	1060	
4187	1	796	
4188	1	1218	
4189	1	1702	
4190	1	2066	
4191	1	2278	
4192	1	2461	
4193	1	2667	
4194	1	2786	
4195	1	2536	
4196	1	2218	
4197	1	2011	
4198	1	1896	
4199	1	1876	
4200	1	1942	
4201	1	1990	
4202	1	2095	
4203	1	2184	
4204	1	2174	
4205	1	2215	
4206	1	2505	
4207	1	2679	
4208	1	2556	
4209	1	2413	
4210	1	2103	
4211	1	1756	
4212	1	1575	
4213	1	1434	
4214	1	1452	
4215	1	1600	
4216	1	1798	
4217	1	1892	
4218	1	1919	
4219	1	1685	
4220	1	1741	
4221	1	1919	
4222	1	2204	
4223	1	2398	
4224	1	2437	
4225	1	2304	
4226	1	2167	
4227	1	2083	
4228	1	2035	
4229	1	2052	
4230	1	2112	
4231	1	2145	
4232	1	2148	
4233	1	2105	
4234	1	2061	
4235	1	2037	
4236	1	2011	
4237	1	1978	
4238	1	1963	
4239	1	1971	
4240	1	2007	
4241	1	2086	
4242	1	2185	
4243	1	2270	
4244	1	2319	
4245	1	2300	
4246	1	2293	
4247	1	2264	
4248	1	2186	
4249	1	2071	
4250	1	1935	
4251	1	1859	
4252	1	1861	
4253	1	1918	
4254	1	2023	
4255	1	2094	
4256	1	2165	
4257	1	2064	
4258	1	2104	
4259	1	2227	
4260	1	2307	
4261	1	2063	
4262	1	1774	
4263	1	1719	
4264	1	1799	
4265	1	1990	
4266	1	2089	
4267	1	1831	
4268	1	1756	
4269	1	1825	
4270	1	1969	
4271	1	2204	
4272	1	2270	
4273	1	2251	
4274	1	2237	
4275	1	2135	
4276	1	2004	
4277	1	1945	
4278	1	1941	
4279	1	1931	
4280	1	1964	
4281	1	2030	
4282	1	2140	
4283	1	2259	
4284	1	2536	
4285	1	2510	
4286	1	2312	
4287	1	2030	
4288	1	1728	
4289	1	1593	
4290	1	1552	
4291	1	1748	
4292	1	1914	
4293	1	2044	
4294	1	2129	
4295	1	2128	
4296	1	2101	
4297	1	2137	
4298	1	2179	
4299	1	2175	
4300	1	2141	
4301	1	2068	
4302	1	2022	
4303	1	2005	
4304	1	2008	
4305	1	2095	
4306	1	2130	
4307	1	2036	
4308	1	2043	
4309	1	2026	
4310	1	2037	
4311	1	2077	
4312	1	2137	
4313	1	2236	
4314	1	2392	
4315	1	2370	
4316	1	2281	
4317	1	2212	
4318	1	2028	
4319	1	1872	
4320	1	1751	
4321	1	1695	
4322	1	1695	
4323	1	1778	
4324	1	1912	
4325	1	2011	
4326	1	2051	
4327	1	2041	
4328	1	2093	
4329	1	2119	
4330	1	2095	
4331	1	2073	
4332	1	2053	
4333	1	2053	
4334	1	2072	
4335	1	2088	
4336	1	2091	
4337	1	2097	
4338	1	2094	
4339	1	2089	
4340	1	2101	
4341	1	2106	
4342	1	2105	
4343	1	2103	
4344	1	2105	
4345	1	2197	
4346	1	2254	
4347	1	2142	
4348	1	2093	
4349	1	2055	
4350	1	2027	
4351	1	1975	
4352	1	1937	
4353	1	1930	
4354	1	1972	
4355	1	2062	
4356	1	2067	
4357	1	2024	
4358	1	2034	
4359	1	2019	
4360	1	1946	
4361	1	1937	
4362	1	1939	
4363	1	1952	
4364	1	2001	
4365	1	2039	
4366	1	2066	
4367	1	2093	
4368	1	2114	
4369	1	2126	
4370	1	2146	
4371	1	2161	
4372	1	2136	
4373	1	2102	
4374	1	2089	
4375	1	2077	
4376	1	2065	
4377	1	2058	
4378	1	2051	
4379	1	2049	
4380	1	2050	
4381	1	2044	
4382	1	2045	
4383	1	2042	
4384	1	2042	
4385	1	2048	
4386	1	2056	
4387	1	2059	
4388	1	2054	
4389	1	2052	
4390	1	2062	
4391	1	2060	
4392	1	2058	
4393	1	2059	
4394	1	2055	
4395	1	2051	
4396	1	2048	
4397	1	2054	
4398	1	2056	
4399	1	2048	
4400	1	2041	
4401	1	2036	
4402	1	2050	
4403	1	2054	
4404	1	2052	
4405	1	2048	
4406	1	2045	
4407	1	2044	
4408	1	2050	
4409	1	2058	
4410	1	2061	
4411	1	2059	
4412	1	2056	
4413	1	2058	
4414	1	2052	
4415	1	2056	
4416	1	2056	
4417	1	2056	
4418	1	2058	
4419	1	2053	
4420	1	2048	
4421	1	2046	
4422	1	2048	
4423	1	2050	
4424	1	2049	
4425	1	2049	
4426	1	2049	
4427	1	2048	
4428	1	2055	
4429	1	2060	
4430	1	2062	
4431	1	2061	
4432	1	2059	
4433	1	2066	
4434	1	2062	
4435	1	2059	
4436	1	2050	
4437	1	2050	
4438	1	2049	
4439	1	2054	
4440	1	2055	
4441	1	2052	
4442	1	2051	
4443	1	2050	
4444	1	2053	
4445	1	2047	
4446	1	2043	
4447	1	2045	
4448	1	2059	
4449	1	2071	
4450	1	2074	
4451	1	2068	
4452	1	2062	
4453	1	2061	
4454	1	2053	
4455	1	2043	
4456	1	2044	
4457	1	2043	
4458	1	2046	
4459	1	2048	
4460	1	2049	
4461	1	2045	
4462	1	2050	
4463	1	2043	
4464	1	2044	
4465	1	2050	
4466	1	2054	
4467	1	2062	
4468	1	2067	
4469	1	2068	
4470	1	2062	
4471	1	2061	
4472	1	2057	
4473	1	2062	
4474	1	2062	
4475	1	2061	
4476	1	2068	
4477	1	2068	
4478	1	2065	
4479	1	2054	
4480	1	2050	
4481	1	2046	
4482	1	2044	
4483	1	2042	
4484	1	2041	
4485	1	2032	
4486	1	2041	
4487	1	2041	
4488	1	2042	
4489	1	2048	
4490	1	2057	
4491	1	2059	
4492	1	2063	
4493	1	2061	
4494	1	2059	
4495	1	2064	
4496	1	2064	
4497	1	2062	
4498	1	2050	
4499	1	2044	
4500	1	2047	
4501	1	2053	
4502	1	2056	
4503	1	2055	
4504	1	2056	
4505	1	2043	
4506	1	2041	
4507	1	2040	
4508	1	2046	
4509	1	2053	
4510	1	2058	
4511	1	2064	
4512	1	2064	
4513	1	2062	
4514	1	2064	
4515	1	2069	
4516	1	2061	
4517	1	2055	
4518	1	2053	
4519	1	2044	
4520	1	2047	
4521	1	2044	
4522	1	2045	
4523	1	2049	
4524	1	2060	
4525	1	2067	
4526	1	2062	
4527	1	2055	
4528	1	2057	
4529	1	2055	
4530	1	2054	
4531	1	2053	
4532	1	2050	
4533	1	2049	
4534	1	2049	
4535	1	2046	
4536	1	2055	
4537	1	2056	
4538	1	2056	
4539	1	2060	
4540	1	2057	
4541	1	2061	
4542	1	2066	
4543	1	2061	
4544	1	2055	
4545	1	2055	
4546	1	2053	
4547	1	2050	
4548	1	2054	
4549	1	2055	
4550	1	2056	
4551	1	2054	
4552	1	2053	
4553	1	2047	
4554	1	2048	
4555	1	2053	
4556	1	2049	
4557	1	2055	
4558	1	2051	
4559	1	2052	
4560	1	2062	
4561	1	2067	
4562	1	2060	
4563	1	2049	
4564	1	2047	
4565	1	2051	
4566	1	2053	
4567	1	2054	
4568	1	2053	
4569	1	2057	
4570	1	2067	
4571	1	2061	
4572	1	2062	
4573	1	2059	
4574	1	2055	
4575	1	2050	
4576	1	2048	
4577	1	2050	
4578	1	2047	
4579	1	2051	
4580	1	2052	
4581	1	2049	
4582	1	2052	
4583	1	2054	
4584	1	2052	
4585	1	2055	
4586	1	2054	
4587	1	2055	
4588	1	2066	
4589	1	2063	
4590	1	2057	
4591	1	2055	
4592	1	2055	
4593	1	2054	
4594	1	2053	
4595	1	2053	
4596	1	2053	
4597	1	2046	
4598	1	2052	
4599	1	2049	
4600	1	2057	
4601	1	2059	
4602	1	2058	
4603	1	2053	
4604	1	2059	
4605	1	2062	
4606	1	2059	
4607	1	2058	
4608	1	2054	
4609	1	2053	
4610	1	2054	
4611	1	2047	
4612	1	2051	
4613	1	2050	
4614	1	2050	
4615	1	2050	
4616	1	2057	
4617	1	2053	
4618	1	2054	
4619	1	2051	
4620	1	2051	
4621	1	2049	
4622	1	2050	
4623	1	2049	
4624	1	2055	
4625	1	2059	
4626	1	2059	
4627	1	2053	
4628	1	2050	
4629	1	2051	
4630	1	2046	
4631	1	2049	
4632	1	2049	
4633	1	2048	
4634	1	2051	
4635	1	2053	
4636	1	2054	
4637	1	2070	
4638	1	2072	
4639	1	2064	
4640	1	2067	
4641	1	2069	
4642	1	2059	
4643	1	2048	
4644	1	2042	
4645	1	2035	
4646	1	2039	
4647	1	2045	
4648	1	2052	
4649	1	2060	
4650	1	2079	
4651	1	2074	
4652	1	2061	
4653	1	2059	
4654	1	2048	
4655	1	2053	
4656	1	2048	
4657	1	2043	
4658	1	2047	
4659	1	2063	
4660	1	2067	
4661	1	2060	
4662	1	2059	
4663	1	2052	
4664	1	2046	
4665	1	2052	
4666	1	2052	
4667	1	2051	
4668	1	2052	
4669	1	2053	
4670	1	2052	
4671	1	2053	
4672	1	2051	
4673	1	2053	
4674	1	2054	
4675	1	2059	
4676	1	2054	
4677	1	2051	
4678	1	2055	
4679	1	2055	
4680	1	2053	
4681	1	2051	
4682	1	2052	
4683	1	2055	
4684	1	2054	
4685	1	2054	
4686	1	2055	
4687	1	2051	
4688	1	2048	
4689	1	2055	
4690	1	2062	
4691	1	2064	
4692	1	2064	
4693	1	2060	
4694	1	2060	
4695	1	2053	
4696	1	2055	
4697	1	2053	
4698	1	2051	
4699	1	2049	
4700	1	2050	
4701	1	2051	
4702	1	2051	
4703	1	2062	
4704	1	2063	
4705	1	2054	
4706	1	2052	
4707	1	2049	
4708	1	2045	
4709	1	2049	
4710	1	2050	
4711	1	2064	
4712	1	2062	
4713	1	2057	
4714	1	2064	
4715	1	2055	
4716	1	2052	
4717	1	2051	
4718	1	2049	
4719	1	2048	
4720	1	2057	
4721	1	2053	
4722	1	2054	
4723	1	2060	
4724	1	2053	
4725	1	2054	
4726	1	2054	
4727	1	2053	
4728	1	2049	
4729	1	2049	
4730	1	2049	
4731	1	2054	
4732	1	2053	
4733	1	2052	
4734	1	2052	
4735	1	2059	
4736	1	2064	
4737	1	2069	
4738	1	2063	
4739	1	2058	
4740	1	2054	
4741	1	2051	
4742	1	2054	
4743	1	2052	
4744	1	2053	
4745	1	2053	
4746	1	2052	
4747	1	2054	
4748	1	2052	
4749	1	2057	
4750	1	2056	
4751	1	2052	
4752	1	2050	
4753	1	2054	
4754	1	2053	
4755	1	2055	
4756	1	2053	
4757	1	2051	
4758	1	2051	
4759	1	2052	
4760	1	2053	
4761	1	2052	
4762	1	2050	
4763	1	2048	
4764	1	2049	
4765	1	2050	
4766	1	2056	
4767	1	2058	
4768	1	2070	
4769	1	2072	
4770	1	2065	
4771	1	2059	
4772	1	2055	
4773	1	2057	
4774	1	2053	
4775	1	2052	
4776	1	2054	
4777	1	2053	
4778	1	2054	
4779	1	2049	
4780	1	2052	
4781	1	2051	
4782	1	2054	
4783	1	2053	
4784	1	2054	
4785	1	2050	
4786	1	2051	
4787	1	2049	
4788	1	2054	
4789	1	2054	
4790	1	2055	
4791	1	2055	
4792	1	2052	
4793	1	2051	
4794	1	2054	
4795	1	2055	
4796	1	2056	
4797	1	2055	
4798	1	2055	
4799	1	2053	
4800	1	2054	
4801	1	2053	
4802	1	2052	
4803	1	2051	
4804	1	2051	
4805	1	2057	
4806	1	2057	
4807	1	2055	
4808	1	2055	
4809	1	2051	
4810	1	2050	
4811	1	2049	
4812	1	2052	
4813	1	2061	
4814	1	2066	
4815	1	2060	
4816	1	2059	
4817	1	2060	
4818	1	2058	
4819	1	2055	
4820	1	2052	
4821	1	2050	
4822	1	2052	
4823	1	2053	
4824	1	2054	
4825	1	2054	
4826	1	2052	
4827	1	2050	
4828	1	2051	
4829	1	2052	
4830	1	2051	
4831	1	2051	
4832	1	2056	
4833	1	2050	
4834	1	2054	
4835	1	2056	
4836	1	2057	
4837	1	2056	
4838	1	2054	
4839	1	2057	
4840	1	2056	
4841	1	2053	
4842	1	2054	
4843	1	2054	
4844	1	2050	
4845	1	2052	
4846	1	2053	
4847	1	2050	
4848	1	2054	
4849	1	2051	
4850	1	2049	
4851	1	2048	
4852	1	2050	
4853	1	2059	
4854	1	2072	
4855	1	2077	
4856	1	2063	
4857	1	2061	
4858	1	2054	
4859	1	2050	
4860	1	2048	
4861	1	2048	
4862	1	2046	
4863	1	2046	
4864	1	2046	
4865	1	2050	
4866	1	2055	
4867	1	2063	
4868	1	2060	
4869	1	2054	
4870	1	2052	
4871	1	2057	
4872	1	2061	
4873	1	2060	
4874	1	2056	
4875	1	2050	
4876	1	2051	
4877	1	2051	
4878	1	2051	
4879	1	2050	
4880	1	2052	
4881	1	2057	
4882	1	2057	
4883	1	2055	
4884	1	2053	
4885	1	2057	
4886	1	2054	
4887	1	2053	
4888	1	2051	
4889	1	2055	
4890	1	2057	
4891	1	2054	
4892	1	2054	
4893	1	2055	
4894	1	2057	
4895	1	2056	
4896	1	2058	
4897	1	2052	
4898	1	2054	
4899	1	2054	
4900	1	2052	
4901	1	2053	
4902	1	2048	
4903	1	2050	
4904	1	2050	
4905	1	2050	
4906	1	2055	
4907	1	2059	
4908	1	2061	
4909	1	2062	
4910	1	2061	
4911	1	2056	
4912	1	2057	
4913	1	2053	
4914	1	2052	
4915	1	2053	
4916	1	2051	
4917	1	2049	
4918	1	2054	
4919	1	2052	
4920	1	2057	
4921	1	2054	
4922	1	2053	
4923	1	2053	
4924	1	2057	
4925	1	2051	
4926	1	2052	
4927	1	2052	
4928	1	2056	
4929	1	2056	
4930	1	2059	
4931	1	2053	
4932	1	2055	
4933	1	2057	
4934	1	2059	
4935	1	2055	
4936	1	2053	
4937	1	2057	
4938	1	2052	
4939	1	2051	
4940	1	2049	
4941	1	2052	
4942	1	2048	
4943	1	2047	
4944	1	2046	
4945	1	2052	
4946	1	2056	
4947	1	2060	
4948	1	2065	
4949	1	2064	
4950	1	2063	
4951	1	2059	
4952	1	2054	
4953	1	2055	
4954	1	2055	
4955	1	2055	
4956	1	2055	
4957	1	2053	
4958	1	2052	
4959	1	2052	
4960	1	2051	
4961	1	2051	
4962	1	2052	
4963	1	2050	
4964	1	2052	
4965	1	2051	
4966	1	2057	
4967	1	2061	
4968	1	2056	
4969	1	2055	
4970	1	2053	
4971	1	2053	
4972	1	2055	
4973	1	2059	
4974	1	2055	
4975	1	2053	
4976	1	2049	
4977	1	2051	
4978	1	2052	
4979	1	2054	
4980	1	2052	
4981	1	2052	
4982	1	2056	
4983	1	2055	
4984	1	2055	
4985	1	2053	
4986	1	2055	
4987	1	2051	
4988	1	2050	
4989	1	2051	
4990	1	2059	
4991	1	2062	
4992	1	2056	
4993	1	2053	
4994	1	2056	
4995	1	2058	
4996	1	2058	
4997	1	2052	
4998	1	2053	
4999	1	2051	
5000	1	2054	
5001	1	2053	
5002	1	2052	
5003	1	2055	
5004	1	2055	
5005	1	2053	
5006	1	2054	
5007	1	2053	
5008	1	2051	
5009	1	2053	
5010	1	2052	
5011	1	2049	
5012	1	2054	
5013	1	2051	
5014	1	2050	
5015	1	2052	
5016	1	2051	
5017	1	2050	
5018	1	2061	
5019	1	2071	
5020	1	2059	
5021	1	2053	
5022	1	2055	
5023	1	2058	
5024	1	2052	
5025	1	2054	
5026	1	2053	
5027	1	2055	
5028	1	2050	
5029	1	2046	
5030	1	2054	
5031	1	2054	
5032	1	2060	
5033	1	2064	
5034	1	2061	
5035	1	2058	
5036	1	2052	
5037	1	2058	
5038	1	2052	
5039	1	2052	
5040	1	2052	
5041	1	2054	
5042	1	2051	
5043	1	2049	
5044	1	2045	
5045	1	2043	
5046	1	2048	
5047	1	2065	
5048	1	2073	
5049	1	2068	
5050	1	2060	
5051	1	2054	
5052	1	2056	
5053	1	2052	
5054	1	2049	
5055	1	2051	
5056	1	2050	
5057	1	2053	
5058	1	2050	
5059	1	2048	
5060	1	2050	
5061	1	2055	
5062	1	2049	
5063	1	2055	
5064	1	2057	
5065	1	2054	
5066	1	2052	
5067	1	2054	
5068	1	2052	
5069	1	2055	
5070	1	2053	
5071	1	2054	
5072	1	2054	
5073	1	2054	
5074	1	2056	
5075	1	2057	
5076	1	2057	
5077	1	2056	
5078	1	2056	
5079	1	2055	
5080	1	2055	
5081	1	2053	
5082	1	2054	
5083	1	2054	
5084	1	2057	
5085	1	2058	
5086	1	2064	
5087	1	2062	
5088	1	2054	
5089	1	2058	
5090	1	2057	
5091	1	2054	
5092	1	2054	
5093	1	2056	
5094	1	2057	
5095	1	2055	
5096	1	2053	
5097	1	2054	
5098	1	2057	
5099	1	2054	
5100	1	2054	
5101	1	2054	
5102	1	2053	
5103	1	2052	
5104	1	2053	
5105	1	2053	
5106	1	2055	
5107	1	2054	
5108	1	2053	
5109	1	2051	
5110	1	2054	
5111	1	2052	
5112	1	2055	
5113	1	2052	
5114	1	2051	
5115	1	2053	
5116	1	2052	
5117	1	2053	
5118	1	2051	
5119	1	2049	
5120	1	2053	
5121	1	2053	
5122	1	2051	
5123	1	2055	
5124	1	2056	
5125	1	2052	
5126	1	2050	
5127	1	2053	
5128	1	2056	
5129	1	2053	
5130	1	2055	
5131	1	2053	
5132	1	2056	
5133	1	2055	
5134	1	2058	
5135	1	2062	
5136	1	2057	
5137	1	2059	
5138	1	2057	
5139	1	2055	
5140	1	2055	
5141	1	2056	
5142	1	2055	
5143	1	2055	
5144	1	2055	
5145	1	2056	
5146	1	2056	
5147	1	2057	
5148	1	2056	
5149	1	2058	
5150	1	2056	
5151	1	2060	
5152	1	2057	
5153	1	2056	
5154	1	2058	
5155	1	2057	
5156	1	2062	
5157	1	2057	
5158	1	2055	
5159	1	2053	
5160	1	2056	
5161	1	2054	
5162	1	2052	
5163	1	2053	
5164	1	2056	
5165	1	2056	
5166	1	2053	
5167	1	2052	
5168	1	2052	
5169	1	2050	
5170	1	2050	
5171	1	2050	
5172	1	2054	
5173	1	2052	
5174	1	2053	
5175	1	2050	
5176	1	2053	
5177	1	2051	
5178	1	2050	
5179	1	2053	
5180	1	2056	
5181	1	2056	
5182	1	2053	
5183	1	2051	
5184	1	2050	
5185	1	2053	
5186	1	2061	
5187	1	2058	
5188	1	2054	
5189	1	2052	
5190	1	2054	
5191	1	2053	
5192	1	2056	
5193	1	2054	
5194	1	2053	
5195	1	2051	
5196	1	2053	
5197	1	2057	
5198	1	2055	
5199	1	2056	
5200	1	2053	
5201	1	2053	
5202	1	2054	
5203	1	2054	
5204	1	2056	
5205	1	2054	
5206	1	2057	
5207	1	2056	
5208	1	2054	
5209	1	2052	
5210	1	2052	
5211	1	2050	
5212	1	2052	
5213	1	2055	
5214	1	2052	
5215	1	2053	
5216	1	2054	
5217	1	2058	
5218	1	2056	
5219	1	2055	
5220	1	2054	
5221	1	2054	
5222	1	2054	
5223	1	2053	
5224	1	2052	
5225	1	2053	
5226	1	2051	
5227	1	2053	
5228	1	2054	
5229	1	2053	
5230	1	2053	
5231	1	2052	
5232	1	2055	
5233	1	2051	
5234	1	2052	
5235	1	2052	
5236	1	2057	
5237	1	2058	
5238	1	2056	
5239	1	2056	
5240	1	2056	
5241	1	2057	
5242	1	2056	
5243	1	2050	
5244	1	2053	
5245	1	2054	
5246	1	2053	
5247	1	2054	
5248	1	2052	
5249	1	2052	
5250	1	2053	
5251	1	2052	
5252	1	2051	
5253	1	2050	
5254	1	2057	
5255	1	2053	
5256	1	2053	
5257	1	2053	
5258	1	2059	
5259	1	2056	
5260	1	2055	
5261	1	2055	
5262	1	2052	
5263	1	2053	
5264	1	2052	
5265	1	2055	
5266	1	2053	
5267	1	2053	
5268	1	2054	
5269	1	2052	
5270	1	2052	
5271	1	2053	
5272	1	2052	
5273	1	2058	
5274	1	2055	
5275	1	2055	
5276	1	2056	
5277	1	2054	
5278	1	2056	
5279	1	2057	
5280	1	2052	
5281	1	2053	
5282	1	2054	
5283	1	2052	
5284	1	2052	
5285	1	2045	
5286	1	2056	
5287	1	2058	
5288	1	2060	
5289	1	2063	
5290	1	2059	
5291	1	2056	
5292	1	2058	
5293	1	2054	
5294	1	2051	
5295	1	2054	
5296	1	2052	
5297	1	2053	
5298	1	2053	
5299	1	2053	
5300	1	2053	
5301	1	2054	
5302	1	2052	
5303	1	2052	
5304	1	2055	
5305	1	2056	
5306	1	2057	
5307	1	2054	
5308	1	2054	
5309	1	2052	
5310	1	2053	
5311	1	2053	
5312	1	2053	
5313	1	2055	
5314	1	2055	
5315	1	2054	
5316	1	2054	
5317	1	2055	
5318	1	2054	
5319	1	2057	
5320	1	2055	
5321	1	2051	
5322	1	2055	
5323	1	2054	
5324	1	2056	
5325	1	2056	
5326	1	2054	
5327	1	2054	
5328	1	2054	
5329	1	2053	
5330	1	2055	
5331	1	2054	
5332	1	2054	
5333	1	2054	
5334	1	2056	
5335	1	2056	
5336	1	2053	
5337	1	2052	
5338	1	2051	
5339	1	2057	
5340	1	2055	
5341	1	2052	
5342	1	2052	
5343	1	2052	
5344	1	2052	
5345	1	2054	
5346	1	2056	
5347	1	2058	
5348	1	2058	
5349	1	2057	
5350	1	2053	
5351	1	2052	
5352	1	2052	
5353	1	2050	
5354	1	2051	
5355	1	2052	
5356	1	2051	
5357	1	2054	
5358	1	2056	
5359	1	2056	
5360	1	2056	
5361	1	2056	
5362	1	2054	
5363	1	2050	
5364	1	2058	
5365	1	2053	
5366	1	2052	
5367	1	2053	
5368	1	2055	
5369	1	2056	
5370	1	2056	
5371	1	2054	
5372	1	2054	
5373	1	2057	
5374	1	2053	
5375	1	2053	
5376	1	2054	
5377	1	2054	
5378	1	2054	
5379	1	2056	
5380	1	2057	
5381	1	2053	
5382	1	2054	
5383	1	2055	
5384	1	2054	
5385	1	2053	
5386	1	2054	
5387	1	2052	
5388	1	2055	
5389	1	2052	
5390	1	2054	
5391	1	2054	
5392	1	2053	
5393	1	2053	
5394	1	2054	
5395	1	2055	
5396	1	2054	
5397	1	2053	
5398	1	2056	
5399	1	2056	
5400	1	2058	
5401	1	2059	
5402	1	2062	
5403	1	2061	
5404	1	2061	
5405	1	2057	
5406	1	2052	
5407	1	2054	
5408	1	2049	
5409	1	2047	
5410	1	2050	
5411	1	2052	
5412	1	2052	
5413	1	2047	
5414	1	2043	
5415	1	2046	
5416	1	2047	
5417	1	2051	
5418	1	2052	
5419	1	2053	
5420	1	2059	
5421	1	2057	
5422	1	2053	
5423	1	2055	
5424	1	2055	
5425	1	2053	
5426	1	2055	
5427	1	2056	
5428	1	2058	
5429	1	2060	
5430	1	2058	
5431	1	2056	
5432	1	2055	
5433	1	2058	
5434	1	2054	
5435	1	2055	
5436	1	2054	
5437	1	2054	
5438	1	2053	
5439	1	2054	
5440	1	2058	
5441	1	2054	
5442	1	2052	
5443	1	2053	
5444	1	2056	
5445	1	2055	
5446	1	2056	
5447	1	2059	
5448	1	2053	
5449	1	2051	
5450	1	2054	
5451	1	2054	
5452	1	2049	
5453	1	2050	
5454	1	2049	
5455	1	2048	
5456	1	2056	
5457	1	2059	
5458	1	2064	
5459	1	2062	
5460	1	2056	
5461	1	2054	
5462	1	2053	
5463	1	2049	
5464	1	2047	
5465	1	2047	
5466	1	2052	
5467	1	2057	
5468	1	2057	
5469	1	2042	
5470	1	2049	
5471	1	2048	
5472	1	2049	
5473	1	2045	
5474	1	2060	
5475	1	2067	
5476	1	2074	
5477	1	2084	
5478	1	2088	
5479	1	2091	
5480	1	2079	
5481	1	2065	
5482	1	2047	
5483	1	2034	
5484	1	2037	
5485	1	2040	
5486	1	2034	
5487	1	2020	
5488	1	2023	
5489	1	2036	
5490	1	2040	
5491	1	2040	
5492	1	2039	
5493	1	2039	
5494	1	2040	
5495	1	2046	
5496	1	2055	
5497	1	2061	
5498	1	2074	
5499	1	2099	
5500	1	2106	
5501	1	2113	
5502	1	2116	
5503	1	2078	
5504	1	2035	
5505	1	2021	
5506	1	2024	
5507	1	2038	
5508	1	2060	
5509	1	2077	
5510	1	2080	
5511	1	2061	
5512	1	2047	
5513	1	2025	
5514	1	2022	
5515	1	2034	
5516	1	2020	
5517	1	1994	
5518	1	1997	
5519	1	2018	
5520	1	2035	
5521	1	2049	
5522	1	2057	
5523	1	2055	
5524	1	2052	
5525	1	2053	
5526	1	2057	
5527	1	2070	
5528	1	2089	
5529	1	2075	
5530	1	2052	
5531	1	2027	
5532	1	2015	
5533	1	2029	
5534	1	2050	
5535	1	2076	
5536	1	2096	
5537	1	2108	
5538	1	2102	
5539	1	2106	
5540	1	2099	
5541	1	2108	
5542	1	2107	
5543	1	2087	
5544	1	2045	
5545	1	2010	
5546	1	2016	
5547	1	2031	
5548	1	2028	
5549	1	2021	
5550	1	2020	
5551	1	2030	
5552	1	2034	
5553	1	2042	
5554	1	2047	
5555	1	2056	
5556	1	2071	
5557	1	2086	
5558	1	2091	
5559	1	2090	
5560	1	2079	
5561	1	2062	
5562	1	2044	
5563	1	2034	
5564	1	2021	
5565	1	2020	
5566	1	2020	
5567	1	2024	
5568	1	2029	
5569	1	2040	
5570	1	2050	
5571	1	2058	
5572	1	2063	
5573	1	2071	
5574	1	2078	
5575	1	2076	
5576	1	2070	
5577	1	2066	
5578	1	2064	
5579	1	2056	
5580	1	2055	
5581	1	2058	
5582	1	2054	
5583	1	2055	
5584	1	2052	
5585	1	2043	
5586	1	2039	
5587	1	2035	
5588	1	2041	
5589	1	2059	
5590	1	2060	
5591	1	2050	
5592	1	2041	
5593	1	2035	
5594	1	2034	
5595	1	2044	
5596	1	2063	
5597	1	2068	
5598	1	2070	
5599	1	2064	
5600	1	2068	
5601	1	2065	
5602	1	2063	
5603	1	2068	
5604	1	2076	
5605	1	2066	
5606	1	2049	
5607	1	2050	
5608	1	2060	
5609	1	2067	
5610	1	2059	
5611	1	2061	
5612	1	2059	
5613	1	2048	
5614	1	2028	
5615	1	2018	
5616	1	2024	
5617	1	2035	
5618	1	2034	
5619	1	2042	
5620	1	2057	
5621	1	2063	
5622	1	2070	
5623	1	2064	
5624	1	2052	
5625	1	2052	
5626	1	2070	
5627	1	2092	
5628	1	2097	
5629	1	2072	
5630	1	2040	
5631	1	2023	
5632	1	2025	
5633	1	2031	
5634	1	2044	
5635	1	2065	
5636	1	2086	
5637	1	2106	
5638	1	2114	
5639	1	2078	
5640	1	2027	
5641	1	1985	
5642	1	1976	
5643	1	1976	
5644	1	1985	
5645	1	2028	
5646	1	2077	
5647	1	2102	
5648	1	2118	
5649	1	2135	
5650	1	2119	
5651	1	2100	
5652	1	2098	
5653	1	2096	
5654	1	2044	
5655	1	2000	
5656	1	2007	
5657	1	2002	
5658	1	1994	
5659	1	2005	
5660	1	2038	
5661	1	2087	
5662	1	2104	
5663	1	2108	
5664	1	2109	
5665	1	2106	
5666	1	2093	
5667	1	2085	
5668	1	2064	
5669	1	2038	
5670	1	2012	
5671	1	2007	
5672	1	2000	
5673	1	2005	
5674	1	2011	
5675	1	2013	
5676	1	1992	
5677	1	2006	
5678	1	2030	
5679	1	2044	
5680	1	2049	
5681	1	2057	
5682	1	2078	
5683	1	2100	
5684	1	2112	
5685	1	2120	
5686	1	2107	
5687	1	2076	
5688	1	2060	
5689	1	2079	
5690	1	2016	
5691	1	1966	
5692	1	1954	
5693	1	1974	
5694	1	2027	
5695	1	2084	
5696	1	2117	
5697	1	2129	
5698	1	2125	
5699	1	2135	
5700	1	2135	
5701	1	2093	
5702	1	2063	
5703	1	2049	
5704	1	2020	
5705	1	1969	
5706	1	1962	
5707	1	2003	
5708	1	2060	
5709	1	1950	
5710	1	1734	
5711	1	1782	
5712	1	1866	
5713	1	2019	
5714	1	2218	
5715	1	2281	
5716	1	2365	
5717	1	2439	
5718	1	2481	
5719	1	2495	
5720	1	2343	
5721	1	2091	
5722	1	1877	
5723	1	1735	
5724	1	1682	
5725	1	1703	
5726	1	1776	
5727	1	1957	
5728	1	2141	
5729	1	2203	
5730	1	2179	
5731	1	2182	
5732	1	2158	
5733	1	2094	
5734	1	2019	
5735	1	1915	
5736	1	1879	
5737	1	1911	
5738	1	1983	
5739	1	2071	
5740	1	2111	
5741	1	2118	
5742	1	2079	
5743	1	2029	
5744	1	1999	
5745	1	1995	
5746	1	2016	
5747	1	2034	
5748	1	2045	
5749	1	2058	
5750	1	2088	
5751	1	2110	
5752	1	2126	
5753	1	2130	
5754	1	2111	
5755	1	2078	
5756	1	2057	
5757	1	2020	
5758	1	1746	
5759	1	1676	
5760	1	1735	
5761	1	1907	
5762	1	2086	
5763	1	2204	
5764	1	2373	
5765	1	2516	
5766	1	2566	
5767	1	2482	
5768	1	2306	
5769	1	2120	
5770	1	1937	
5771	1	1848	
5772	1	1871	
5773	1	1927	
5774	1	1981	
5775	1	2019	
5776	1	2004	
5777	1	1986	
5778	1	1963	
5779	1	1928	
5780	1	1898	
5781	1	1951	
5782	1	1909	
5783	1	1912	
5784	1	1958	
5785	1	2016	
5786	1	2086	
5787	1	2070	
5788	1	2046	
5789	1	2130	
5790	1	2252	
5791	1	2295	
5792	1	2272	
5793	1	2271	
5794	1	2238	
5795	1	2225	
5796	1	2205	
5797	1	2108	
5798	1	1705	
5799	1	1629	
5800	1	1771	
5801	1	1972	
5802	1	2104	
5803	1	1981	
5804	1	2093	
5805	1	2108	
5806	1	2148	
5807	1	2132	
5808	1	2085	
5809	1	2136	
5810	1	2272	
5811	1	2303	
5812	1	2259	
5813	1	2030	
5814	1	1840	
5815	1	1813	
5816	1	1858	
5817	1	1913	
5818	1	1979	
5819	1	2041	
5820	1	2099	
5821	1	2098	
5822	1	2107	
5823	1	2111	
5824	1	2079	
5825	1	2060	
5826	1	2093	
5827	1	2088	
5828	1	2098	
5829	1	1965	
5830	1	1866	
5831	1	1690	
5832	1	1705	
5833	1	1808	
5834	1	1936	
5835	1	2068	
5836	1	2243	
5837	1	2352	
5838	1	2427	
5839	1	2195	
5840	1	2107	
5841	1	2045	
5842	1	2032	
5843	1	1829	
5844	1	1866	
5845	1	2023	
5846	1	2251	
5847	1	2409	
5848	1	2465	
5849	1	2388	
5850	1	2276	
5851	1	2258	
5852	1	2126	
5853	1	2091	
5854	1	1988	
5855	1	1912	
5856	1	1846	
5857	1	1721	
5858	1	1712	
5859	1	1831	
5860	1	1924	
5861	1	2024	
5862	1	2125	
5863	1	2149	
5864	1	2101	
5865	1	2007	
5866	1	1917	
5867	1	1922	
5868	1	1962	
5869	1	2007	
5870	1	2054	
5871	1	2096	
5872	1	2122	
5873	1	2152	
5874	1	2090	
5875	1	2055	
5876	1	1900	
5877	1	1833	
5878	1	2033	
5879	1	2147	
5880	1	2195	
5881	1	2224	
5882	1	2301	
5883	1	2241	
5884	1	1918	
5885	1	1650	
5886	1	1744	
5887	1	1916	
5888	1	2135	
5889	1	2356	
5890	1	2471	
5891	1	2707	
5892	1	2780	
5893	1	2611	
5894	1	2304	
5895	1	1987	
5896	1	1790	
5897	1	1666	
5898	1	1711	
5899	1	1707	
5900	1	1721	
5901	1	1704	
5902	1	1728	
5903	1	1784	
5904	1	1802	
5905	1	1839	
5906	1	1657	
5907	1	1693	
5908	1	1856	
5909	1	2110	
5910	1	2291	
5911	1	2437	
5912	1	2630	
5913	1	2794	
5914	1	2767	
5915	1	2509	
5916	1	2119	
5917	1	1767	
5918	1	1438	
5919	1	1228	
5920	1	1515	
5921	1	1873	
5922	1	2217	
5923	1	2358	
5924	1	2461	
5925	1	2619	
5926	1	2656	
5927	1	2486	
5928	1	2150	
5929	1	1792	
5930	1	1599	
5931	1	1649	
5932	1	1738	
5933	1	1704	
5934	1	1796	
5935	1	1966	
5936	1	2175	
5937	1	2264	
5938	1	2009	
5939	1	1923	
5940	1	1951	
5941	1	1814	
5942	1	2015	
5943	1	1947	
5944	1	1951	
5945	1	2068	
5946	1	2192	
5947	1	2141	
5948	1	2239	
5949	1	2274	
5950	1	2288	
5951	1	2278	
5952	1	2407	
5953	1	2302	
5954	1	2213	
5955	1	2166	
5956	1	2107	
5957	1	1996	
5958	1	2067	
5959	1	2107	
5960	1	2139	
5961	1	2180	
5962	1	2135	
5963	1	1921	
5964	1	1871	
5965	1	1882	
5966	1	1873	
5967	1	1848	
5968	1	1872	
5969	1	1932	
5970	1	1894	
5971	1	1825	
5972	1	1858	
5973	1	1877	
5974	1	1967	
5975	1	1680	
5976	1	1656	
5977	1	1796	
5978	1	2065	
5979	1	2182	
5980	1	2244	
5981	1	2349	
5982	1	2597	
5983	1	2757	
5984	1	2842	
5985	1	2696	
5986	1	2454	
5987	1	2247	
5988	1	1950	
5989	1	1516	
5990	1	1495	
5991	1	1520	
5992	1	1424	
5993	1	1336	
5994	1	1573	
5995	1	1943	
5996	1	2354	
5997	1	2462	
5998	1	2509	
5999	1	2586	
6000	1	2496	
6001	1	2332	
6002	1	1871	
6003	1	1324	
6004	1	1395	
6005	1	1868	
6006	1	2155	
6007	1	2447	
6008	1	2593	
6009	1	2575	
6010	1	2433	
6011	1	2171	
6012	1	1950	
6013	1	1813	
6014	1	1808	
6015	1	1885	
6016	1	1897	
6017	1	1971	
6018	1	2041	
6019	1	1957	
6020	1	1954	
6021	1	1771	
6022	1	1282	
6023	1	1453	
6024	1	1864	
6025	1	2269	
6026	1	2438	
6027	1	2507	
6028	1	2529	
6029	1	2575	
6030	1	2553	
6031	1	2496	
6032	1	2239	
6033	1	1960	
6034	1	1877	
6035	1	1881	
6036	1	1809	
6037	1	1789	
6038	1	1829	
6039	1	1870	
6040	1	1881	
6041	1	1909	
6042	1	2003	
6043	1	1936	
6044	1	1698	
6045	1	1698	
6046	1	1832	
6047	1	2023	
6048	1	2282	
6049	1	2580	
6050	1	2680	
6051	1	2658	
6052	1	2544	
6053	1	2302	
6054	1	2035	
6055	1	2128	
6056	1	2203	
6057	1	2170	
6058	1	2042	
6059	1	2019	
6060	1	1959	
6061	1	1790	
6062	1	1611	
6063	1	1447	
6064	1	1431	
6065	1	1670	
6066	1	1896	
6067	1	1992	
6068	1	2039	
6069	1	2027	
6070	1	1981	
6071	1	2030	
6072	1	2260	
6073	1	2347	
6074	1	2377	
6075	1	2413	
6076	1	2160	
6077	1	1790	
6078	1	1768	
6079	1	1312	
6080	1	1447	
6081	1	1953	
6082	1	2449	
6083	1	2871	
6084	1	3037	
6085	1	3083	
6086	1	3086	
6087	1	2790	
6088	1	2298	
6089	1	1749	
6090	1	1378	
6091	1	1058	
6092	1	1007	
6093	1	1389	
6094	1	1559	
6095	1	2048	
6096	1	2485	
6097	1	2635	
6098	1	2666	
6099	1	2541	
6100	1	2407	
6101	1	2155	
6102	1	1786	
6103	1	1443	
6104	1	1250	
6105	1	1333	
6106	1	1245	
6107	1	1256	
6108	1	1541	
6109	1	1935	
6110	1	2233	
6111	1	2594	
6112	1	2908	
6113	1	3020	
6114	1	2716	
6115	1	2493	
6116	1	2350	
6117	1	2147	
6118	1	2011	
6119	1	1950	
6120	1	1962	
6121	1	1997	
6122	1	1926	
6123	1	1665	
6124	1	1595	
6125	1	1486	
6126	1	1808	
6127	1	2115	
6128	1	2379	
6129	1	2487	
6130	1	2410	
6131	1	2275	
6132	1	2169	
6133	1	2052	
6134	1	1651	
6135	1	1683	
6136	1	1940	
6137	1	2186	
6138	1	2308	
6139	1	2289	
6140	1	2127	
6141	1	1951	
6142	1	1611	
6143	1	1532	
6144	1	1568	
6145	1	1840	
6146	1	1856	
6147	1	2186	
6148	1	2552	
6149	1	2896	
6150	1	3000	
6151	1	2855	
6152	1	2662	
6153	1	2225	
6154	1	1970	
6155	1	1889	
6156	1	1863	
6157	1	1935	
6158	1	1773	
6159	1	1388	
6160	1	1584	
6161	1	1886	
6162	1	1538	
6163	1	1683	
6164	1	1789	
6165	1	1926	
6166	1	2056	
6167	1	1942	
6168	1	2023	
6169	1	2306	
6170	1	2424	
6171	1	2422	
6172	1	2410	
6173	1	2484	
6174	1	2574	
6175	1	2220	
6176	1	1940	
6177	1	1607	
6178	1	1456	
6179	1	1400	
6180	1	1398	
6181	1	1669	
6182	1	1990	
6183	1	2435	
6184	1	2698	
6185	1	2865	
6186	1	2792	
6187	1	2368	
6188	1	1698	
6189	1	1665	
6190	1	1335	
6191	1	1478	
6192	1	1969	
6193	1	2384	
6194	1	2518	
6195	1	2362	
6196	1	2220	
6197	1	2307	
6198	1	2375	
6199	1	2242	
6200	1	2024	
6201	1	1985	
6202	1	1939	
6203	1	1820	
6204	1	1820	
6205	1	1674	
6206	1	1171	
6207	1	1266	
6208	1	1613	
6209	1	1979	
6210	1	2291	
6211	1	2523	
6212	1	2771	
6213	1	2886	
6214	1	2691	
6215	1	2344	
6216	1	1946	
6217	1	1842	
6218	1	1896	
6219	1	1904	
6220	1	1977	
6221	1	2081	
6222	1	2205	
6223	1	2157	
6224	1	1998	
6225	1	1575	
6226	1	1368	
6227	1	1703	
6228	1	2042	
6229	1	1958	
6230	1	2080	
6231	1	2244	
6232	1	2531	
6233	1	2678	
6234	1	2588	
6235	1	2599	
6236	1	2502	
6237	1	2237	
6238	1	1986	
6239	1	1864	
6240	1	1846	
6241	1	1734	
6242	1	1702	
6243	1	1777	
6244	1	1691	
6245	1	1578	
6246	1	1331	
6247	1	1510	
6248	1	1560	
6249	1	1669	
6250	1	2339	
6251	1	2796	
6252	1	3121	
6253	1	3040	
6254	1	2545	
6255	1	2049	
6256	1	1822	
6257	1	1633	
6258	1	1406	
6259	1	1721	
6260	1	1666	
6261	1	1851	
6262	1	2414	
6263	1	2703	
6264	1	2918	
6265	1	2879	
6266	1	2786	
6267	1	2280	
6268	1	1633	
6269	1	1166	
6270	1	1040	
6271	1	1167	
6272	1	1390	
6273	1	1840	
6274	1	2044	
6275	1	2151	
6276	1	2158	
6277	1	2188	
6278	1	2096	
6279	1	2160	
6280	1	2152	
6281	1	2119	
6282	1	2094	
6283	1	2235	
6284	1	2432	
6285	1	2429	
6286	1	2373	
6287	1	2241	
6288	1	2369	
6289	1	2462	
6290	1	2374	
6291	1	2193	
6292	1	2078	
6293	1	1415	
6294	1	1096	
6295	1	1509	
6296	1	1978	
6297	1	2270	
6298	1	2092	
6299	1	2427	
6300	1	2548	
6301	1	2462	
6302	1	2527	
6303	1	2262	
6304	1	1920	
6305	1	1652	
6306	1	1467	
6307	1	1544	
6308	1	1687	
6309	1	1844	
6310	1	1919	
6311	1	1927	
6312	1	1738	
6313	1	1686	
6314	1	1822	
6315	1	1788	
6316	1	1583	
6317	1	1980	
6318	1	2466	
6319	1	2694	
6320	1	2474	
6321	1	2236	
6322	1	2401	
6323	1	2623	
6324	1	2544	
6325	1	2309	
6326	1	2227	
6327	1	2333	
6328	1	2428	
6329	1	2593	
6330	1	2538	
6331	1	2042	
6332	1	1633	
6333	1	1158	
6334	1	1008	
6335	1	1244	
6336	1	1640	
6337	1	2019	
6338	1	2302	
6339	1	2081	
6340	1	1630	
6341	1	1547	
6342	1	1971	
6343	1	2173	
6344	1	2389	
6345	1	2536	
6346	1	2394	
6347	1	2156	
6348	1	2074	
6349	1	2085	
6350	1	1882	
6351	1	1733	
6352	1	2003	
6353	1	2477	
6354	1	2326	
6355	1	1883	
6356	1	1717	
6357	1	1948	
6358	1	2144	
6359	1	2323	
6360	1	2324	
6361	1	2519	
6362	1	2289	
6363	1	2222	
6364	1	2357	
6365	1	2179	
6366	1	2045	
6367	1	1836	
6368	1	1604	
6369	1	1600	
6370	1	1685	
6371	1	1910	
6372	1	2370	
6373	1	2580	
6374	1	2486	
6375	1	2389	
6376	1	2183	
6377	1	2020	
6378	1	2002	
6379	1	2298	
6380	1	1957	
6381	1	1425	
6382	1	865	
6383	1	1144	
6384	1	1403	
6385	1	1626	
6386	1	2258	
6387	1	2926	
6388	1	2805	
6389	1	2821	
6390	1	2555	
6391	1	2051	
6392	1	1566	
6393	1	1331	
6394	1	1487	
6395	1	1889	
6396	1	2453	
6397	1	2638	
6398	1	2450	
6399	1	2082	
6400	1	1748	
6401	1	1870	
6402	1	2298	
6403	1	2434	
6404	1	2304	
6405	1	1884	
6406	1	1594	
6407	1	1521	
6408	1	1640	
6409	1	1843	
6410	1	1947	
6411	1	2007	
6412	1	2129	
6413	1	2521	
6414	1	2794	
6415	1	2768	
6416	1	2624	
6417	1	2575	
6418	1	2963	
6419	1	2972	
6420	1	2455	
6421	1	1683	
6422	1	1311	
6423	1	1410	
6424	1	1101	
6425	1	778	
6426	1	903	
6427	1	1200	
6428	1	1543	
6429	1	2027	
6430	1	2491	
6431	1	2398	
6432	1	2248	
6433	1	2104	
6434	1	2080	
6435	1	2063	
6436	1	2103	
6437	1	2341	
6438	1	2526	
6439	1	2681	
6440	1	2607	
6441	1	2389	
6442	1	2219	
6443	1	2128	
6444	1	2295	
6445	1	2006	
6446	1	1632	
6447	1	1358	
6448	1	1308	
6449	1	1428	
6450	1	1726	
6451	1	2141	
6452	1	2634	
6453	1	2952	
6454	1	2590	
6455	1	1994	
6456	1	1616	
6457	1	1737	
6458	1	1980	
6459	1	2510	
6460	1	2777	
6461	1	2885	
6462	1	2667	
6463	1	2505	
6464	1	2452	
6465	1	2190	
6466	1	1724	
6467	1	1375	
6468	1	1263	
6469	1	1857	
6470	1	2103	
6471	1	1409	
6472	1	806	
6473	1	978	
6474	1	1515	
6475	1	1947	
6476	1	2279	
6477	1	2342	
6478	1	2211	
6479	1	2274	
6480	1	2308	
6481	1	2310	
6482	1	2058	
6483	1	2040	
6484	1	2177	
6485	1	2291	
6486	1	2480	
6487	1	2629	
6488	1	3054	
6489	1	2410	
6490	1	1594	
6491	1	1180	
6492	1	1018	
6493	1	1426	
6494	1	1790	
6495	1	1913	
6496	1	1950	
6497	1	2237	
6498	1	2294	
6499	1	2402	
6500	1	2273	
6501	1	2036	
6502	1	1986	
6503	1	2081	
6504	1	2219	
6505	1	2444	
6506	1	2460	
6507	1	2329	
6508	1	2168	
6509	1	2084	
6510	1	1984	
6511	1	1947	
6512	1	1993	
6513	1	2039	
6514	1	2231	
6515	1	2450	
6516	1	2474	
6517	1	2438	
6518	1	2408	
6519	1	2384	
6520	1	2098	
6521	1	1879	
6522	1	1775	
6523	1	1817	
6524	1	1644	
6525	1	1277	
6526	1	1116	
6527	1	1246	
6528	1	2162	
6529	1	2705	
6530	1	2364	
6531	1	1972	
6532	1	1812	
6533	1	1151	
6534	1	1081	
6535	1	1537	
6536	1	2142	
6537	1	2645	
6538	1	3165	
6539	1	3220	
6540	1	2788	
6541	1	2403	
6542	1	1925	
6543	1	1746	
6544	1	1885	
6545	1	1870	
6546	1	1940	
6547	1	2370	
6548	1	2324	
6549	1	2000	
6550	1	1661	
6551	1	1530	
6552	1	1530	
6553	1	1397	
6554	1	1337	
6555	1	1670	
6556	1	1962	
6557	1	2103	
6558	1	2214	
6559	1	2139	
6560	1	2202	
6561	1	2314	
6562	1	2404	
6563	1	2429	
6564	1	2594	
6565	1	2777	
6566	1	2720	
6567	1	2452	
6568	1	2318	
6569	1	2281	
6570	1	2336	
6571	1	2178	
6572	1	1880	
6573	1	1390	
6574	1	1549	
6575	1	1778	
6576	1	1770	
6577	1	1891	
6578	1	2027	
6579	1	1842	
6580	1	1675	
6581	1	1785	
6582	1	2067	
6583	1	2467	
6584	1	2837	
6585	1	2630	
6586	1	2253	
6587	1	1961	
6588	1	2248	
6589	1	2382	
6590	1	1787	
6591	1	1273	
6592	1	1070	
6593	1	916	
6594	1	1046	
6595	1	1574	
6596	1	2125	
6597	1	2748	
6598	1	3172	
6599	1	3092	
6600	1	2463	
6601	1	1901	
6602	1	1659	
6603	1	1777	
6604	1	1873	
6605	1	2397	
6606	1	2474	
6607	1	2183	
6608	1	1921	
6609	1	1753	
6610	1	1741	
6611	1	1766	
6612	1	1995	
6613	1	2170	
6614	1	2669	
6615	1	3570	
6616	1	3566	
6617	1	3283	
6618	1	1837	
6619	1	1083	
6620	1	670	
6621	1	846	
6622	1	919	
6623	1	790	
6624	1	1150	
6625	1	1864	
6626	1	2324	
6627	1	2277	
6628	1	2219	
6629	1	2312	
6630	1	2659	
6631	1	2766	
6632	1	2640	
6633	1	2458	
6634	1	2299	
6635	1	2163	
6636	1	2300	
6637	1	2477	
6638	1	2797	
6639	1	2819	
6640	1	2270	
6641	1	1546	
6642	1	1159	
6643	1	1088	
6644	1	1296	
6645	1	1498	
6646	1	1617	
6647	1	1657	
6648	1	1838	
6649	1	2074	
6650	1	2282	
6651	1	2349	
6652	1	2316	
6653	1	2361	
6654	1	2399	
6655	1	2515	
6656	1	2609	
6657	1	2672	
6658	1	2703	
6659	1	2212	
6660	1	1673	
6661	1	1581	
6662	1	1661	
6663	1	1806	
6664	1	1830	
6665	1	1922	
6666	1	2754	
6667	1	2960	
6668	1	2512	
6669	1	1726	
6670	1	1210	
6671	1	1344	
6672	1	1565	
6673	1	1679	
6674	1	1830	
6675	1	2054	
6676	1	2131	
6677	1	1818	
6678	1	1460	
6679	1	1617	
6680	1	2275	
6681	1	2985	
6682	1	3342	
6683	1	3642	
6684	1	3500	
6685	1	3167	
6686	1	1396	
6687	1	754	
6688	1	811	
6689	1	1187	
6690	1	1500	
6691	1	1466	
6692	1	1357	
6693	1	1442	
6694	1	1637	
6695	1	1312	
6696	1	1355	
6697	1	1911	
6698	1	2325	
6699	1	2466	
6700	1	2663	
6701	1	2643	
6702	1	2495	
6703	1	2382	
6704	1	2336	
6705	1	2345	
6706	1	2294	
6707	1	2154	
6708	1	2531	
6709	1	2858	
6710	1	2532	
6711	1	2104	
6712	1	1738	
6713	1	1594	
6714	1	1893	
6715	1	2188	
6716	1	2251	
6717	1	2177	
6718	1	2089	
6719	1	1805	
6720	1	1923	
6721	1	2532	
6722	1	3062	
6723	1	3144	
6724	1	2670	
6725	1	2133	
6726	1	1723	
6727	1	1203	
6728	1	451	
6729	1	164	
6730	1	495	
6731	1	1297	
6732	1	1818	
6733	1	2218	
6734	1	2366	
6735	1	2366	
6736	1	2802	
6737	1	3206	
6738	1	3190	
6739	1	2909	
6740	1	2304	
6741	1	1781	
6742	1	1661	
6743	1	1605	
6744	1	1791	
6745	1	2028	
6746	1	2809	
6747	1	2885	
6748	1	2554	
6749	1	1968	
6750	1	1657	
6751	1	1799	
6752	1	1861	
6753	1	1649	
6754	1	1563	
6755	1	1625	
6756	1	1850	
6757	1	1788	
6758	1	1338	
6759	1	1210	
6760	1	1422	
6761	1	1695	
6762	1	2180	
6763	1	2973	
6764	1	2799	
6765	1	2504	
6766	1	2253	
6767	1	1786	
6768	1	1436	
6769	1	1585	
6770	1	2088	
6771	1	2583	
6772	1	2970	
6773	1	2777	
6774	1	2337	
6775	1	2275	
6776	1	2195	
6777	1	2060	
6778	1	2084	
6779	1	2328	
6780	1	2162	
6781	1	2174	
6782	1	2049	
6783	1	2047	
6784	1	1833	
6785	1	1376	
6786	1	1368	
6787	1	1784	
6788	1	2517	
6789	1	2596	
6790	1	3414	
6791	1	3497	
6792	1	3335	
6793	1	1942	
6794	1	859	
6795	1	213	
6796	1	86	
6797	1	342	
6798	1	577	
6799	1	1457	
6800	1	2223	
6801	1	2392	
6802	1	2634	
6803	1	2902	
6804	1	2883	
6805	1	2714	
6806	1	2483	
6807	1	2248	
6808	1	2148	
6809	1	2069	
6810	1	1945	
6811	1	1734	
6812	1	1583	
6813	1	1909	
6814	1	2280	
6815	1	2556	
6816	1	2686	
6817	1	2400	
6818	1	2543	
6819	1	2481	
6820	1	2317	
6821	1	2257	
6822	1	2049	
6823	1	1768	
6824	1	1529	
6825	1	1686	
6826	1	1791	
6827	1	1651	
6828	1	1689	
6829	1	1901	
6830	1	2066	
6831	1	2102	
6832	1	2915	
6833	1	3368	
6834	1	3510	
6835	1	3362	
6836	1	3196	
6837	1	2644	
6838	1	831	
6839	1	649	
6840	1	406	
6841	1	168	
6842	1	295	
6843	1	522	
6844	1	728	
6845	1	1664	
6846	1	1867	
6847	1	1826	
6848	1	2269	
6849	1	2450	
6850	1	2331	
6851	1	2488	
6852	1	2785	
6853	1	2910	
6854	1	2927	
6855	1	2870	
6856	1	2733	
6857	1	2815	
6858	1	2773	
6859	1	2708	
6860	1	2713	
6861	1	2909	
6862	1	2550	
6863	1	2015	
6864	1	1497	
6865	1	1092	
6866	1	835	
6867	1	617	
6868	1	1107	
6869	1	1667	
6870	1	1887	
6871	1	1960	
6872	1	2121	
6873	1	2208	
6874	1	2239	
6875	1	2652	
6876	1	2799	
6877	1	2617	
6878	1	2238	
6879	1	2026	
6880	1	2163	
6881	1	2239	
6882	1	2439	
6883	1	2441	
6884	1	2063	
6885	1	1541	
6886	1	1278	
6887	1	1606	
6888	1	1915	
6889	1	1688	
6890	1	1747	
6891	1	2164	
6892	1	2126	
6893	1	1834	
6894	1	1838	
6895	1	1889	
6896	1	2044	
6897	1	2483	
6898	1	2611	
6899	1	2426	
6900	1	2148	
6901	1	1867	
6902	1	1768	
6903	1	1736	
6904	1	1812	
6905	1	2147	
6906	1	2438	
6907	1	2416	
6908	1	2351	
6909	1	2381	
6910	1	2743	
6911	1	2689	
6912	1	2222	
6913	1	2751	
6914	1	3177	
6915	1	2475	
6916	1	981	
6917	1	9	
6918	1	88	
6919	1	357	
6920	1	591	
6921	1	1739	
6922	1	2439	
6923	1	2751	
6924	1	3029	
6925	1	3068	
6926	1	2777	
6927	1	2448	
6928	1	2169	
6929	1	2069	
6930	1	2083	
6931	1	1735	
6932	1	1640	
6933	1	1824	
6934	1	2211	
6935	1	2112	
6936	1	2090	
6937	1	2224	
6938	1	2488	
6939	1	2681	
6940	1	2951	
6941	1	2724	
6942	1	2171	
6943	1	1766	
6944	1	1086	
6945	1	533	
6946	1	674	
6947	1	1377	
6948	1	1983	
6949	1	2040	
6950	1	2133	
6951	1	2275	
6952	1	2411	
6953	1	2462	
6954	1	2444	
6955	1	2360	
6956	1	2169	
6957	1	2010	
6958	1	2023	
6959	1	2290	
6960	1	2629	
6961	1	2829	
6962	1	3511	
6963	1	3447	
6964	1	2975	
6965	1	1169	
6966	1	277	
6967	1	273	
6968	1	1114	
6969	1	1619	
6970	1	1915	
6971	1	2051	
6972	1	2049	
6973	1	2152	
6974	1	2301	
6975	1	2510	
6976	1	2927	
6977	1	3352	
6978	1	3514	
6979	1	3356	
6980	1	2613	
6981	1	1650	
6982	1	678	
6983	1	169	
6984	1	116	
6985	1	624	
6986	1	1035	
6987	1	1438	
6988	1	1674	
6989	1	2149	
6990	1	2513	
6991	1	2483	
6992	1	2465	
6993	1	2494	
6994	1	2597	
6995	1	2553	
6996	1	2307	
6997	1	2374	
6998	1	2380	
6999	1	2276	
7000	1	2221	
7001	1	2214	
7002	1	2402	
7003	1	2756	
7004	1	2561	
7005	1	2046	
7006	1	1829	
7007	1	2028	
7008	1	2295	
7009	1	2638	
7010	1	2417	
7011	1	1808	
7012	1	1252	
7013	1	907	
7014	1	1064	
7015	1	1474	
7016	1	1687	
7017	1	1801	
7018	1	2075	
7019	1	2317	
7020	1	2561	
7021	1	2431	
7022	1	2328	
7023	1	1985	
7024	1	1781	
7025	1	1797	
7026	1	1979	
7027	1	2514	
7028	1	2842	
7029	1	2673	
7030	1	2416	
7031	1	2137	
7032	1	1892	
7033	1	1696	
7034	1	1642	
7035	1	1782	
7036	1	2005	
7037	1	2233	
7038	1	1811	
7039	1	1683	
7040	1	1847	
7041	1	1789	
7042	1	1814	
7043	1	1870	
7044	1	1878	
7045	1	1978	
7046	1	2295	
7047	1	2415	
7048	1	2449	
7049	1	2658	
7050	1	3428	
7051	1	3546	
7052	1	3380	
7053	1	2940	
7054	1	1091	
7055	1	391	
7056	1	58	
7057	1	201	
7058	1	495	
7059	1	1150	
7060	1	1824	
7061	1	2107	
7062	1	2196	
7063	1	2409	
7064	1	2555	
7065	1	2758	
7066	1	2800	
7067	1	2725	
7068	1	2435	
7069	1	2220	
7070	1	2161	
7071	1	1976	
7072	1	1930	
7073	1	2387	
7074	1	2749	
7075	1	2533	
7076	1	2172	
7077	1	1848	
7078	1	1582	
7079	1	1487	
7080	1	1705	
7081	1	2338	
7082	1	2613	
7083	1	2643	
7084	1	2574	
7085	1	2240	
7086	1	1953	
7087	1	1710	
7088	1	1673	
7089	1	1703	
7090	1	1941	
7091	1	2180	
7092	1	2129	
7093	1	1849	
7094	1	1571	
7095	1	1346	
7096	1	1260	
7097	1	1472	
7098	1	2018	
7099	1	2278	
7100	1	2456	
7101	1	2473	
7102	1	2356	
7103	1	2241	
7104	1	2118	
7105	1	1990	
7106	1	1900	
7107	1	2154	
7108	1	2298	
7109	1	2307	
7110	1	2427	
7111	1	2403	
7112	1	2217	
7113	1	2021	
7114	1	2074	
7115	1	3040	
7116	1	3000	
7117	1	2125	
7118	1	1362	
7119	1	1021	
7120	1	1192	
7121	1	1601	
7122	1	1698	
7123	1	1836	
7124	1	1799	
7125	1	2066	
7126	1	2304	
7127	1	2086	
7128	1	1965	
7129	1	2037	
7130	1	2094	
7131	1	2194	
7132	1	2281	
7133	1	2326	
7134	1	2267	
7135	1	2254	
7136	1	2192	
7137	1	2115	
7138	1	2066	
7139	1	2195	
7140	1	2073	
7141	1	1944	
7142	1	1865	
7143	1	1726	
7144	1	1721	
7145	1	1639	
7146	1	1699	
7147	1	2000	
7148	1	2086	
7149	1	2105	
7150	1	2269	
7151	1	2356	
7152	1	2324	
7153	1	2301	
7154	1	2248	
7155	1	2140	
7156	1	2171	
7157	1	2158	
7158	1	2156	
7159	1	2039	
7160	1	1963	
7161	1	1887	
7162	1	1981	
7163	1	2248	
7164	1	2434	
7165	1	2803	
7166	1	2630	
7167	1	2086	
7168	1	1491	
7169	1	1545	
7170	1	2422	
7171	1	2755	
7172	1	2172	
7173	1	1479	
7174	1	1107	
7175	1	1015	
7176	1	1110	
7177	1	1666	
7178	1	1921	
7179	1	1994	
7180	1	2101	
7181	1	2258	
7182	1	2487	
7183	1	2658	
7184	1	2774	
7185	1	2668	
7186	1	2240	
7187	1	2027	
7188	1	1887	
7189	1	1437	
7190	1	1299	
7191	1	1532	
7192	1	1762	
7193	1	1839	
7194	1	1751	
7195	1	1940	
7196	1	2213	
7197	1	2282	
7198	1	2376	
7199	1	2455	
7200	1	2381	
7201	1	2331	
7202	1	2273	
7203	1	2158	
7204	1	2098	
7205	1	2062	
7206	1	2170	
7207	1	2367	
7208	1	2494	
7209	1	2416	
7210	1	2307	
7211	1	2112	
7212	1	1913	
7213	1	1816	
7214	1	1848	
7215	1	1747	
7216	1	1733	
7217	1	1892	
7218	1	1932	
7219	1	1930	
7220	1	2160	
7221	1	2043	
7222	1	1916	
7223	1	1994	
7224	1	2196	
7225	1	2123	
7226	1	2064	
7227	1	2468	
7228	1	2453	
7229	1	2113	
7230	1	1622	
7231	1	1393	
7232	1	1543	
7233	1	1883	
7234	1	1997	
7235	1	1971	
7236	1	2038	
7237	1	2423	
7238	1	2437	
7239	1	2222	
7240	1	1917	
7241	1	1858	
7242	1	1945	
7243	1	2016	
7244	1	2303	
7245	1	2420	
7246	1	2275	
7247	1	2052	
7248	1	1910	
7249	1	1817	
7250	1	1688	
7251	1	1828	
7252	1	1909	
7253	1	2196	
7254	1	2438	
7255	1	2347	
7256	1	2217	
7257	1	2150	
7258	1	2254	
7259	1	2476	
7260	1	2676	
7261	1	2539	
7262	1	2198	
7263	1	1787	
7264	1	1651	
7265	1	1682	
7266	1	1592	
7267	1	1472	
7268	1	1528	
7269	1	1717	
7270	1	1630	
7271	1	1637	
7272	1	1822	
7273	1	2083	
7274	1	2162	
7275	1	2229	
7276	1	2286	
7277	1	2243	
7278	1	2236	
7279	1	2356	
7280	1	2418	
7281	1	2495	
7282	1	2664	
7283	1	3044	
7284	1	2870	
7285	1	2422	
7286	1	1876	
7287	1	1176	
7288	1	981	
7289	1	1111	
7290	1	1237	
7291	1	1519	
7292	1	1754	
7293	1	1998	
7294	1	2101	
7295	1	2207	
7296	1	2254	
7297	1	2349	
7298	1	2631	
7299	1	2972	
7300	1	3198	
7301	1	2732	
7302	1	2161	
7303	1	1772	
7304	1	1373	
7305	1	977	
7306	1	1155	
7307	1	1499	
7308	1	1736	
7309	1	2063	
7310	1	2107	
7311	1	2112	
7312	1	2140	
7313	1	2210	
7314	1	2275	
7315	1	2295	
7316	1	2298	
7317	1	2310	
7318	1	2221	
7319	1	2110	
7320	1	2140	
7321	1	2138	
7322	1	2236	
7323	1	2301	
7324	1	2185	
7325	1	2020	
7326	1	1912	
7327	1	1889	
7328	1	1878	
7329	1	2131	
7330	1	2250	
7331	1	2220	
7332	1	2091	
7333	1	2097	
7334	1	2157	
7335	1	2514	
7336	1	2564	
7337	1	2200	
7338	1	1695	
7339	1	1355	
7340	1	1054	
7341	1	1218	
7342	1	1745	
7343	1	2069	
7344	1	2077	
7345	1	2078	
7346	1	2203	
7347	1	2260	
7348	1	2281	
7349	1	2217	
7350	1	2118	
7351	1	2059	
7352	1	2121	
7353	1	2111	
7354	1	2112	
7355	1	2326	
7356	1	2982	
7357	1	3402	
7358	1	2976	
7359	1	2207	
7360	1	1543	
7361	1	1192	
7362	1	1045	
7363	1	1011	
7364	1	1096	
7365	1	1390	
7366	1	1382	
7367	1	1617	
7368	1	1954	
7369	1	2049	
7370	1	2180	
7371	1	2274	
7372	1	2338	
7373	1	2410	
7374	1	2519	
7375	1	2510	
7376	1	2417	
7377	1	2319	
7378	1	2236	
7379	1	2171	
7380	1	2095	
7381	1	2106	
7382	1	2185	
7383	1	2219	
7384	1	2252	
7385	1	2218	
7386	1	2323	
7387	1	2556	
7388	1	2529	
7389	1	2411	
7390	1	2195	
7391	1	1863	
7392	1	1540	
7393	1	1306	
7394	1	1274	
7395	1	1366	
7396	1	1683	
7397	1	1893	
7398	1	2381	
7399	1	2443	
7400	1	2118	
7401	1	1743	
7402	1	1565	
7403	1	1634	
7404	1	2004	
7405	1	2102	
7406	1	2130	
7407	1	2172	
7408	1	2232	
7409	1	2344	
7410	1	2404	
7411	1	2326	
7412	1	2241	
7413	1	2087	
7414	1	2046	
7415	1	2047	
7416	1	2016	
7417	1	2013	
7418	1	2058	
7419	1	2058	
7420	1	2075	
7421	1	2085	
7422	1	2078	
7423	1	2059	
7424	1	2048	
7425	1	2136	
7426	1	2238	
7427	1	2154	
7428	1	2049	
7429	1	2115	
7430	1	2253	
7431	1	2174	
7432	1	2059	
7433	1	2001	
7434	1	2124	
7435	1	2123	
7436	1	2046	
7437	1	1924	
7438	1	1646	
7439	1	1489	
7440	1	1619	
7441	1	1737	
7442	1	1930	
7443	1	2191	
7444	1	2262	
7445	1	2270	
7446	1	2170	
7447	1	2179	
7448	1	2175	
7449	1	2102	
7450	1	2068	
7451	1	2081	
7452	1	2078	
7453	1	2102	
7454	1	2344	
7455	1	2592	
7456	1	2521	
7457	1	2234	
7458	1	1811	
7459	1	1555	
7460	1	2066	
7461	1	2214	
7462	1	1973	
7463	1	1439	
7464	1	1227	
7465	1	1268	
7466	1	1687	
7467	1	2001	
7468	1	2075	
7469	1	2057	
7470	1	2161	
7471	1	2225	
7472	1	2183	
7473	1	2185	
7474	1	2286	
7475	1	2376	
7476	1	2377	
7477	1	2329	
7478	1	2255	
7479	1	2165	
7480	1	2061	
7481	1	2089	
7482	1	2049	
7483	1	2044	
7484	1	2142	
7485	1	2190	
7486	1	2347	
7487	1	2548	
7488	1	2536	
7489	1	2223	
7490	1	1919	
7491	1	1616	
7492	1	1568	
7493	1	1504	
7494	1	1440	
7495	1	1613	
7496	1	1881	
7497	1	1990	
7498	1	2080	
7499	1	2143	
7500	1	2189	
7501	1	2178	
7502	1	2158	
7503	1	2206	
7504	1	2232	
7505	1	2191	
7506	1	2004	
7507	1	2046	
7508	1	2109	
7509	1	2038	
7510	1	1935	
7511	1	1741	
7512	1	1768	
7513	1	1857	
7514	1	2087	
7515	1	2256	
7516	1	2369	
7517	1	2384	
7518	1	2281	
7519	1	2134	
7520	1	2049	
7521	1	2021	
7522	1	1969	
7523	1	1941	
7524	1	2003	
7525	1	2063	
7526	1	2124	
7527	1	2438	
7528	1	3119	
7529	1	2939	
7530	1	2324	
7531	1	1558	
7532	1	1157	
7533	1	1386	
7534	1	1707	
7535	1	1847	
7536	1	1840	
7537	1	1760	
7538	1	1760	
7539	1	1875	
7540	1	2233	
7541	1	2799	
7542	1	2848	
7543	1	2415	
7544	1	1993	
7545	1	1680	
7546	1	1523	
7547	1	1266	
7548	1	1209	
7549	1	1638	
7550	1	1980	
7551	1	2056	
7552	1	2069	
7553	1	2117	
7554	1	2221	
7555	1	2332	
7556	1	2354	
7557	1	2337	
7558	1	2340	
7559	1	2334	
7560	1	2315	
7561	1	2355	
7562	1	2314	
7563	1	2213	
7564	1	2125	
7565	1	2151	
7566	1	2144	
7567	1	2148	
7568	1	2178	
7569	1	1852	
7570	1	1613	
7571	1	1602	
7572	1	1672	
7573	1	1930	
7574	1	2095	
7575	1	2055	
7576	1	2085	
7577	1	2097	
7578	1	2104	
7579	1	2138	
7580	1	2077	
7581	1	1929	
7582	1	1959	
7583	1	2239	
7584	1	2354	
7585	1	2837	
7586	1	2878	
7587	1	2457	
7588	1	1896	
7589	1	1595	
7590	1	1503	
7591	1	1499	
7592	1	1484	
7593	1	1585	
7594	1	1660	
7595	1	1817	
7596	1	2032	
7597	1	1996	
7598	1	2010	
7599	1	2208	
7600	1	2308	
7601	1	2363	
7602	1	2218	
7603	1	2095	
7604	1	2154	
7605	1	2231	
7606	1	2178	
7607	1	2132	
7608	1	2107	
7609	1	2106	
7610	1	2107	
7611	1	2133	
7612	1	2221	
7613	1	2105	
7614	1	2116	
7615	1	2236	
7616	1	2188	
7617	1	1927	
7618	1	2047	
7619	1	2180	
7620	1	1947	
7621	1	1711	
7622	1	1627	
7623	1	1623	
7624	1	1825	
7625	1	2153	
7626	1	2161	
7627	1	2124	
7628	1	2207	
7629	1	2240	
7630	1	2196	
7631	1	2175	
7632	1	2086	
7633	1	2128	
7634	1	2400	
7635	1	2299	
7636	1	1827	
7637	1	1544	
7638	1	1612	
7639	1	1716	
7640	1	1824	
7641	1	1949	
7642	1	2049	
7643	1	2034	
7644	1	1909	
7645	1	2023	
7646	1	2140	
7647	1	2113	
7648	1	1982	
7649	1	2085	
7650	1	2279	
7651	1	2343	
7652	1	2305	
7653	1	2352	
7654	1	2636	
7655	1	2592	
7656	1	2382	
7657	1	2155	
7658	1	1960	
7659	1	1728	
7660	1	1547	
7661	1	1534	
7662	1	1752	
7663	1	1975	
7664	1	2174	
7665	1	2227	
7666	1	2103	
7667	1	1874	
7668	1	1683	
7669	1	1687	
7670	1	1848	
7671	1	2063	
7672	1	2275	
7673	1	2249	
7674	1	2152	
7675	1	2126	
7676	1	2132	
7677	1	2142	
7678	1	2134	
7679	1	2092	
7680	1	2083	
7681	1	2227	
7682	1	2417	
7683	1	2377	
7684	1	2117	
7685	1	1882	
7686	1	1830	
7687	1	1880	
7688	1	2092	
7689	1	2270	
7690	1	2594	
7691	1	3099	
7692	1	2870	
7693	1	2253	
7694	1	1631	
7695	1	1085	
7696	1	946	
7697	1	1071	
7698	1	1124	
7699	1	1395	
7700	1	1749	
7701	1	2008	
7702	1	2254	
7703	1	2517	
7704	1	2377	
7705	1	2302	
7706	1	2458	
7707	1	2495	
7708	1	2317	
7709	1	2109	
7710	1	1947	
7711	1	1883	
7712	1	1825	
7713	1	1826	
7714	1	1897	
7715	1	1933	
7716	1	2211	
7717	1	2375	
7718	1	2431	
7719	1	2362	
7720	1	2217	
7721	1	2031	
7722	1	1911	
7723	1	1905	
7724	1	1965	
7725	1	1971	
7726	1	2185	
7727	1	2349	
7728	1	2302	
7729	1	2307	
7730	1	2116	
7731	1	1862	
7732	1	1633	
7733	1	1442	
7734	1	1467	
7735	1	1725	
7736	1	1975	
7737	1	2190	
7738	1	2334	
7739	1	2354	
7740	1	2266	
7741	1	2405	
7742	1	2585	
7743	1	2576	
7744	1	2234	
7745	1	1944	
7746	1	1786	
7747	1	1849	
7748	1	1806	
7749	1	1622	
7750	1	1704	
7751	1	1891	
7752	1	2046	
7753	1	2132	
7754	1	2204	
7755	1	2477	
7756	1	2737	
7757	1	2617	
7758	1	2288	
7759	1	1984	
7760	1	1884	
7761	1	1890	
7762	1	1764	
7763	1	1830	
7764	1	1942	
7765	1	2158	
7766	1	2249	
7767	1	2299	
7768	1	1709	
7769	1	1281	
7770	1	1193	
7771	1	1372	
7772	1	1602	
7773	1	1731	
7774	1	1914	
7775	1	2112	
7776	1	2337	
7777	1	2650	
7778	1	2847	
7779	1	2765	
7780	1	2683	
7781	1	2489	
7782	1	2171	
7783	1	1811	
7784	1	1847	
7785	1	1854	
7786	1	1973	
7787	1	1929	
7788	1	1842	
7789	1	1845	
7790	1	2024	
7791	1	2097	
7792	1	1974	
7793	1	1804	
7794	1	1796	
7795	1	1906	
7796	1	2011	
7797	1	2060	
7798	1	2034	
7799	1	2076	
7800	1	2168	
7801	1	2235	
7802	1	2288	
7803	1	2300	
7804	1	2219	
7805	1	2098	
7806	1	2105	
7807	1	2115	
7808	1	2092	
7809	1	2096	
7810	1	2243	
7811	1	2319	
7812	1	2260	
7813	1	2255	
7814	1	2030	
7815	1	1708	
7816	1	1682	
7817	1	2198	
7818	1	2944	
7819	1	3189	
7820	1	2649	
7821	1	1923	
7822	1	1503	
7823	1	1157	
7824	1	1128	
7825	1	1180	
7826	1	1723	
7827	1	1996	
7828	1	1958	
7829	1	1875	
7830	1	1694	
7831	1	1768	
7832	1	1831	
7833	1	1825	
7834	1	1822	
7835	1	2018	
7836	1	2230	
7837	1	2292	
7838	1	2248	
7839	1	2227	
7840	1	2252	
7841	1	2296	
7842	1	2389	
7843	1	2331	
7844	1	2247	
7845	1	2274	
7846	1	2237	
7847	1	2102	
7848	1	2034	
7849	1	2057	
7850	1	2071	
7851	1	2023	
7852	1	2049	
7853	1	2170	
7854	1	2219	
7855	1	2103	
7856	1	1884	
7857	1	1847	
7858	1	1959	
7859	1	2101	
7860	1	2466	
7861	1	2646	
7862	1	2335	
7863	1	1926	
7864	1	1844	
7865	1	1836	
7866	1	1731	
7867	1	1657	
7868	1	1749	
7869	1	1773	
7870	1	2220	
7871	1	2492	
7872	1	2552	
7873	1	2586	
7874	1	2527	
7875	1	2101	
7876	1	1665	
7877	1	1293	
7878	1	1024	
7879	1	1347	
7880	1	1702	
7881	1	1857	
7882	1	2116	
7883	1	2282	
7884	1	2289	
7885	1	2343	
7886	1	2173	
7887	1	1987	
7888	1	2003	
7889	1	2152	
7890	1	2283	
7891	1	2378	
7892	1	2275	
7893	1	2254	
7894	1	2350	
7895	1	2287	
7896	1	1939	
7897	1	1742	
7898	1	1876	
7899	1	2191	
7900	1	2388	
7901	1	2432	
7902	1	2284	
7903	1	1831	
7904	1	1616	
7905	1	1649	
7906	1	1680	
7907	1	1616	
7908	1	1606	
7909	1	1767	
7910	1	2081	
7911	1	2243	
7912	1	2307	
7913	1	2305	
7914	1	2317	
7915	1	2319	
7916	1	2583	
7917	1	2550	
7918	1	2377	
7919	1	2208	
7920	1	2123	
7921	1	2107	
7922	1	2008	
7923	1	1758	
7924	1	1486	
7925	1	1451	
7926	1	1689	
7927	1	1839	
7928	1	1987	
7929	1	2107	
7930	1	2126	
7931	1	2051	
7932	1	2080	
7933	1	2090	
7934	1	2102	
7935	1	2094	
7936	1	2098	
7937	1	2085	
7938	1	2078	
7939	1	2107	
7940	1	2147	
7941	1	2197	
7942	1	2205	
7943	1	2209	
7944	1	2104	
7945	1	2017	
7946	1	2110	
7947	1	2218	
7948	1	2328	
7949	1	2295	
7950	1	2161	
7951	1	2035	
7952	1	1975	
7953	1	1964	
7954	1	1925	
7955	1	2068	
7956	1	2346	
7957	1	2293	
7958	1	2091	
7959	1	1787	
7960	1	1593	
7961	1	1516	
7962	1	1595	
7963	1	1602	
7964	1	1561	
7965	1	1276	
7966	1	1471	
7967	1	1877	
7968	1	2272	
7969	1	2561	
7970	1	2601	
7971	1	2695	
7972	1	2628	
7973	1	2447	
7974	1	2241	
7975	1	2165	
7976	1	2116	
7977	1	2151	
7978	1	2174	
7979	1	2146	
7980	1	2099	
7981	1	2066	
7982	1	1980	
7983	1	1847	
7984	1	1786	
7985	1	1790	
7986	1	1853	
7987	1	1949	
7988	1	2085	
7989	1	2414	
7990	1	2592	
7991	1	2561	
7992	1	2360	
7993	1	2122	
7994	1	2024	
7995	1	2034	
7996	1	1824	
7997	1	1643	
7998	1	1573	
7999	1	1508	
8000	1	1569	
8001	1	1667	
8002	1	1826	
8003	1	1967	
8004	1	2039	
8005	1	2083	
8006	1	2141	
8007	1	2259	
8008	1	2280	
8009	1	2317	
8010	1	2379	
8011	1	2287	
8012	1	2230	
8013	1	2261	
8014	1	2156	
8015	1	1982	
8016	1	1906	
8017	1	1920	
8018	1	1845	
8019	1	1850	
8020	1	1954	
8021	1	2048	
8022	1	2192	
8023	1	2287	
8024	1	2222	
8025	1	2247	
8026	1	2340	
8027	1	2253	
8028	1	2193	
8029	1	2212	
8030	1	2172	
8031	1	2107	
8032	1	1982	
8033	1	1529	
8034	1	1675	
8035	1	1935	
8036	1	2270	
8037	1	2437	
8038	1	2213	
8039	1	1995	
8040	1	1784	
8041	1	1754	
8042	1	1962	
8043	1	2065	
8044	1	2043	
8045	1	2087	
8046	1	1978	
8047	1	1754	
8048	1	1539	
8049	1	1576	
8050	1	1806	
8051	1	2002	
8052	1	2133	
8053	1	2231	
8054	1	2317	
8055	1	2403	
8056	1	2362	
8057	1	2237	
8058	1	2007	
8059	1	1810	
8060	1	1799	
8061	1	1791	
8062	1	1916	
8063	1	2093	
8064	1	2224	
8065	1	2256	
8066	1	2271	
8067	1	2282	
8068	1	2254	
8069	1	2224	
8070	1	2148	
8071	1	2082	
8072	1	2096	
8073	1	1950	
8074	1	2075	
8075	1	2180	
8076	1	2279	
8077	1	2306	
8078	1	2223	
8079	1	2239	
8080	1	2241	
8081	1	1975	
8082	1	1731	
8083	1	1766	
8084	1	1691	
8085	1	2096	
8086	1	2346	
8087	1	2158	
8088	1	1969	
8089	1	1781	
8090	1	1850	
8091	1	1904	
8092	1	1976	
8093	1	1900	
8094	1	1821	
8095	1	1900	
8096	1	1918	
8097	1	1870	
8098	1	1882	
8099	1	1977	
8100	1	2142	
8101	1	2146	
8102	1	2265	
8103	1	2525	
8104	1	2603	
8105	1	2518	
8106	1	2231	
8107	1	1933	
8108	1	1762	
8109	1	1726	
8110	1	1826	
8111	1	1931	
8112	1	1938	
8113	1	1986	
8114	1	2042	
8115	1	2058	
8116	1	2132	
8117	1	2012	
8118	1	1824	
8119	1	1942	
8120	1	2081	
8121	1	2106	
8122	1	2029	
8123	1	2104	
8124	1	2171	
8125	1	2314	
8126	1	2470	
8127	1	2290	
8128	1	2134	
8129	1	2038	
8130	1	1980	
8131	1	2044	
8132	1	1632	
8133	1	1606	
8134	1	1815	
8135	1	2056	
8136	1	2213	
8137	1	2319	
8138	1	2347	
8139	1	2471	
8140	1	2386	
8141	1	2284	
8142	1	2112	
8143	1	1910	
8144	1	1904	
8145	1	1906	
8146	1	1920	
8147	1	1925	
8148	1	1920	
8149	1	2129	
8150	1	2321	
8151	1	2407	
8152	1	2398	
8153	1	2091	
8154	1	1849	
8155	1	1591	
8156	1	1371	
8157	1	1306	
8158	1	1372	
8159	1	1541	
8160	1	1899	
8161	1	2316	
8162	1	2665	
8163	1	2693	
8164	1	2522	
8165	1	2292	
8166	1	2126	
8167	1	1967	
8168	1	1838	
8169	1	1903	
8170	1	1980	
8171	1	2115	
8172	1	2120	
8173	1	1809	
8174	1	1882	
8175	1	2101	
8176	1	2348	
8177	1	2508	
8178	1	2559	
8179	1	2415	
8180	1	2483	
8181	1	2306	
8182	1	1739	
8183	1	1734	
8184	1	1787	
8185	1	1915	
8186	1	2103	
8187	1	2150	
8188	1	2228	
8189	1	2070	
8190	1	1798	
8191	1	1598	
8192	1	1477	
8193	1	1505	
8194	1	1603	
8195	1	1801	
8196	1	1974	
8197	1	2104	
8198	1	2227	
8199	1	2291	
8200	1	2249	
8201	1	2223	
8202	1	2198	
8203	1	2161	
8204	1	2175	
8205	1	2212	
8206	1	2200	
8207	1	2095	
8208	1	2058	
8209	1	1948	
8210	1	1852	
8211	1	1982	
8212	1	2119	
8213	1	2250	
8214	1	2389	
8215	1	2447	
8216	1	2459	
8217	1	2352	
8218	1	2141	
8219	1	2013	
8220	1	1691	
8221	1	1725	
8222	1	1871	
8223	1	2114	
8224	1	2126	
8225	1	2048	
8226	1	2028	
8227	1	1946	
8228	1	1898	
8229	1	2012	
8230	1	2123	
8231	1	1844	
8232	1	1893	
8233	1	1816	
8234	1	1887	
8235	1	2038	
8236	1	2157	
8237	1	2394	
8238	1	2556	
8239	1	2631	
8240	1	2839	
8241	1	2316	
8242	1	1793	
8243	1	1720	
8244	1	1612	
8245	1	1587	
8246	1	1538	
8247	1	1542	
8248	1	1596	
8249	1	1744	
8250	1	1890	
8251	1	1986	
8252	1	2119	
8253	1	2201	
8254	1	2301	
8255	1	2465	
8256	1	2425	
8257	1	2192	
8258	1	2043	
8259	1	1924	
8260	1	1935	
8261	1	2021	
8262	1	2095	
8263	1	2135	
8264	1	2277	
8265	1	2065	
8266	1	2051	
8267	1	2038	
8268	1	2191	
8269	1	2235	
8270	1	2191	
8271	1	2012	
8272	1	1831	
8273	1	1805	
8274	1	1861	
8275	1	1976	
8276	1	2117	
8277	1	2174	
8278	1	2101	
8279	1	2027	
8280	1	2072	
8281	1	2003	
8282	1	1939	
8283	1	1961	
8284	1	2047	
8285	1	2186	
8286	1	2256	
8287	1	2276	
8288	1	2322	
8289	1	2364	
8290	1	2254	
8291	1	2130	
8292	1	2025	
8293	1	1964	
8294	1	1638	
8295	1	1690	
8296	1	1847	
8297	1	2036	
8298	1	2056	
8299	1	2256	
8300	1	2442	
8301	1	2485	
8302	1	2246	
8303	1	2057	
8304	1	1870	
8305	1	1818	
8306	1	1854	
8307	1	1970	
8308	1	2272	
8309	1	2332	
8310	1	2117	
8311	1	1975	
8312	1	1849	
8313	1	1749	
8314	1	1768	
8315	1	1766	
8316	1	1781	
8317	1	1835	
8318	1	1895	
8319	1	1881	
8320	1	1719	
8321	1	1814	
8322	1	2175	
8323	1	2281	
8324	1	2351	
8325	1	2468	
8326	1	2462	
8327	1	2448	
8328	1	2295	
8329	1	2129	
8330	1	2105	
8331	1	2033	
8332	1	1977	
8333	1	1921	
8334	1	1892	
8335	1	1911	
8336	1	1962	
8337	1	1942	
8338	1	1902	
8339	1	2102	
8340	1	2250	
8341	1	2252	
8342	1	2196	
8343	1	2097	
8344	1	2006	
8345	1	1714	
8346	1	1721	
8347	1	1839	
8348	1	1957	
8349	1	2049	
8350	1	2225	
8351	1	2332	
8352	1	2452	
8353	1	2349	
8354	1	2093	
8355	1	2017	
8356	1	1932	
8357	1	1967	
8358	1	2003	
8359	1	2029	
8360	1	2083	
8361	1	2144	
8362	1	2047	
8363	1	2026	
8364	1	2051	
8365	1	2038	
8366	1	2098	
8367	1	2145	
8368	1	2144	
8369	1	2110	
8370	1	2034	
8371	1	1986	
8372	1	1707	
8373	1	1622	
8374	1	1826	
8375	1	1931	
8376	1	2175	
8377	1	2287	
8378	1	1931	
8379	1	1964	
8380	1	2209	
8381	1	2296	
8382	1	2350	
8383	1	2428	
8384	1	2619	
8385	1	2635	
8386	1	2300	
8387	1	1954	
8388	1	1725	
8389	1	1577	
8390	1	1526	
8391	1	1596	
8392	1	1677	
8393	1	1797	
8394	1	1928	
8395	1	2018	
8396	1	2118	
8397	1	2144	
8398	1	2152	
8399	1	2204	
8400	1	2198	
8401	1	2174	
8402	1	2173	
8403	1	2160	
8404	1	2167	
8405	1	2117	
8406	1	2111	
8407	1	2169	
8408	1	2106	
8409	1	2009	
8410	1	2032	
8411	1	1982	
8412	1	1799	
8413	1	1927	
8414	1	1959	
8415	1	2043	
8416	1	2092	
8417	1	2049	
8418	1	1964	
8419	1	2022	
8420	1	2067	
8421	1	2258	
8422	1	2394	
8423	1	2254	
8424	1	2131	
8425	1	2054	
8426	1	1885	
8427	1	1708	
8428	1	1654	
8429	1	1767	
8430	1	1926	
8431	1	2055	
8432	1	2103	
8433	1	2111	
8434	1	2115	
8435	1	2157	
8436	1	2184	
8437	1	2198	
8438	1	2191	
8439	1	2167	
8440	1	2121	
8441	1	2074	
8442	1	2055	
8443	1	2060	
8444	1	2064	
8445	1	2047	
8446	1	2039	
8447	1	2031	
8448	1	2023	
8449	1	2018	
8450	1	2028	
8451	1	2032	
8452	1	2042	
8453	1	2052	
8454	1	2059	
8455	1	2072	
8456	1	2101	
8457	1	2106	
8458	1	2097	
8459	1	2083	
8460	1	2070	
8461	1	2067	
8462	1	2061	
8463	1	2047	
8464	1	2042	
8465	1	2037	
8466	1	2036	
8467	1	2037	
8468	1	2036	
8469	1	2034	
8470	1	2033	
8471	1	2031	
8472	1	2035	
8473	1	2044	
8474	1	2053	
8475	1	2064	
8476	1	2067	
8477	1	2060	
8478	1	2055	
8479	1	2053	
8480	1	2038	
8481	1	2042	
8482	1	2051	
8483	1	2056	
8484	1	2061	
8485	1	2075	
8486	1	2082	
8487	1	2086	
8488	1	2088	
8489	1	2086	
8490	1	2092	
8491	1	2074	
8492	1	2058	
8493	1	2050	
8494	1	2046	
8495	1	2037	
8496	1	2026	
8497	1	2022	
8498	1	2015	
8499	1	2007	
8500	1	2000	
8501	1	1982	
8502	1	1990	
8503	1	2004	
8504	1	2026	
8505	1	2047	
8506	1	2060	
8507	1	2078	
8508	1	2077	
8509	1	2068	
8510	1	2052	
8511	1	2055	
8512	1	2078	
8513	1	2079	
8514	1	2074	
8515	1	2075	
8516	1	2074	
8517	1	2082	
8518	1	2082	
8519	1	2088	
8520	1	2082	
8521	1	2073	
8522	1	2069	
8523	1	2074	
8524	1	2054	
8525	1	2054	
8526	1	2054	
8527	1	2050	
8528	1	2036	
8529	1	2026	
8530	1	2025	
8531	1	2021	
8532	1	2026	
8533	1	2038	
8534	1	2046	
8535	1	2050	
8536	1	2052	
8537	1	2061	
8538	1	2058	
8539	1	2060	
8540	1	2067	
8541	1	2066	
8542	1	2068	
8543	1	2057	
8544	1	2048	
8545	1	2051	
8546	1	2057	
8547	1	2062	
8548	1	2062	
8549	1	2063	
8550	1	2061	
8551	1	2058	
8552	1	2056	
8553	1	2049	
8554	1	2050	
8555	1	2053	
8556	1	2053	
8557	1	2052	
8558	1	2051	
8559	1	2049	
8560	1	2048	
8561	1	2045	
8562	1	2045	
8563	1	2044	
8564	1	2040	
8565	1	2047	
8566	1	2052	
8567	1	2051	
8568	1	2058	
8569	1	2062	
8570	1	2063	
8571	1	2059	
8572	1	2060	
8573	1	2053	
8574	1	2051	
8575	1	2050	
8576	1	2052	
8577	1	2054	
8578	1	2056	
8579	1	2056	
8580	1	2057	
8581	1	2058	
8582	1	2056	
8583	1	2056	
8584	1	2059	
8585	1	2056	
8586	1	2051	
8587	1	2052	
8588	1	2056	
8589	1	2055	
8590	1	2056	
8591	1	2057	
8592	1	2056	
8593	1	2053	
8594	1	2050	
8595	1	2053	
8596	1	2054	
8597	1	2057	
8598	1	2058	
8599	1	2055	
8600	1	2054	
8601	1	2055	
8602	1	2053	
8603	1	2049	
8604	1	2047	
8605	1	2049	
8606	1	2055	
8607	1	2052	
8608	1	2053	
8609	1	2056	
8610	1	2058	
8611	1	2053	
8612	1	2048	
8613	1	2047	
8614	1	2044	
8615	1	2047	
8616	1	2045	
8617	1	2049	
8618	1	2051	
8619	1	2054	
8620	1	2057	
8621	1	2054	
8622	1	2053	
8623	1	2057	
8624	1	2060	
8625	1	2057	
8626	1	2059	
8627	1	2063	
8628	1	2058	
8629	1	2056	
8630	1	2060	
8631	1	2058	
8632	1	2060	
8633	1	2067	
8634	1	2060	
8635	1	2054	
8636	1	2049	
8637	1	2043	
8638	1	2044	
8639	1	2049	
8640	1	2046	
8641	1	2051	
8642	1	2049	
8643	1	2046	
8644	1	2042	
8645	1	2048	
8646	1	2031	
8647	1	2008	
8648	1	2027	
8649	1	2054	
8650	1	2069	
8651	1	2078	
8652	1	2087	
8653	1	2092	
8654	1	2096	
8655	1	2088	
8656	1	2079	
8657	1	2065	
8658	1	2043	
8659	1	2038	
8660	1	2039	
8661	1	2036	
8662	1	2037	
8663	1	2040	
8664	1	2046	
8665	1	2052	
8666	1	2056	
8667	1	2056	
8668	1	2055	
8669	1	2054	
8670	1	2057	
8671	1	2056	
8672	1	2052	
8673	1	2051	
8674	1	2056	
8675	1	2055	
8676	1	2056	
8677	1	2056	
8678	1	2052	
8679	1	2054	
8680	1	2057	
8681	1	2053	
8682	1	2051	
8683	1	2051	
8684	1	2054	
8685	1	2051	
8686	1	2052	
8687	1	2054	
8688	1	2055	
8689	1	2058	
8690	1	2056	
8691	1	2056	
8692	1	2056	
8693	1	2055	
8694	1	2053	
8695	1	2052	
8696	1	2054	
8697	1	2055	
8698	1	2050	
8699	1	2049	
8700	1	2049	
8701	1	2054	
8702	1	2056	
8703	1	2056	
8704	1	2056	
8705	1	2058	
8706	1	2059	
8707	1	2056	
8708	1	2054	
8709	1	2054	
8710	1	2051	
8711	1	2053	
8712	1	2055	
8713	1	2056	
8714	1	2055	
8715	1	2052	
8716	1	2051	
8717	1	2048	
8718	1	2047	
8719	1	2046	
8720	1	2049	
8721	1	2053	
8722	1	2055	
8723	1	2056	
8724	1	2050	
8725	1	2054	
8726	1	2057	
8727	1	2058	
8728	1	2053	
8729	1	2053	
8730	1	2055	
8731	1	2054	
8732	1	2056	
8733	1	2056	
8734	1	2056	
8735	1	2057	
8736	1	2056	
8737	1	2055	
8738	1	2056	
8739	1	2050	
8740	1	2054	
8741	1	2056	
8742	1	2059	
8743	1	2060	
8744	1	2060	
8745	1	2056	
8746	1	2056	
8747	1	2053	
8748	1	2055	
8749	1	2054	
8750	1	2056	
8751	1	2060	
8752	1	2059	
8753	1	2052	
8754	1	2052	
8755	1	2048	
8756	1	2045	
8757	1	2044	
8758	1	2043	
8759	1	2047	
8760	1	2052	
8761	1	2060	
8762	1	2068	
8763	1	2068	
8764	1	2065	
8765	1	2059	
8766	1	2060	
8767	1	2060	
8768	1	2057	
8769	1	2054	
8770	1	2054	
8771	1	2054	
8772	1	2062	
8773	1	2067	
8774	1	2073	
8775	1	2066	
8776	1	2064	
8777	1	2068	
8778	1	2069	
8779	1	2077	
8780	1	2077	
8781	1	2059	
8782	1	2046	
8783	1	2020	
8784	1	2000	
8785	1	1991	
8786	1	1989	
8787	1	2004	
8788	1	2022	
8789	1	2040	
8790	1	2057	
8791	1	2066	
8792	1	2075	
8793	1	2072	
8794	1	2068	
8795	1	2071	
8796	1	2073	
8797	1	2067	
8798	1	2070	
8799	1	2064	
8800	1	2065	
8801	1	2063	
8802	1	2059	
8803	1	2061	
8804	1	2059	
8805	1	2056	
8806	1	2056	
8807	1	2051	
8808	1	2055	
8809	1	2059	
8810	1	2058	
8811	1	2059	
8812	1	2057	
8813	1	2052	
8814	1	2052	
8815	1	2051	
8816	1	2054	
8817	1	2056	
8818	1	2050	
8819	1	2051	
8820	1	2052	
8821	1	2054	
8822	1	2056	
8823	1	2058	
8824	1	2057	
8825	1	2057	
8826	1	2052	
8827	1	2056	
8828	1	2057	
8829	1	2056	
8830	1	2058	
8831	1	2056	
8832	1	2057	
8833	1	2050	
8834	1	2050	
8835	1	2050	
8836	1	2056	
8837	1	2053	
8838	1	2052	
8839	1	2056	
8840	1	2055	
8841	1	2059	
8842	1	2055	
8843	1	2055	
8844	1	2053	
8845	1	2052	
8846	1	2052	
8847	1	2053	
8848	1	2053	
8849	1	2055	
8850	1	2055	
8851	1	2053	
8852	1	2055	
8853	1	2054	
8854	1	2056	
8855	1	2053	
8856	1	2058	
8857	1	2057	
8858	1	2060	
8859	1	2052	
8860	1	2053	
8861	1	2057	
8862	1	2056	
8863	1	2056	
8864	1	2055	
8865	1	2051	
8866	1	2052	
8867	1	2055	
8868	1	2055	
8869	1	2056	
8870	1	2052	
8871	1	2052	
8872	1	2051	
8873	1	2049	
8874	1	2053	
8875	1	2057	
8876	1	2054	
8877	1	2053	
8878	1	2058	
8879	1	2056	
8880	1	2057	
8881	1	2055	
8882	1	2055	
8883	1	2053	
8884	1	2052	
8885	1	2055	
8886	1	2048	
8887	1	2053	
8888	1	2057	
8889	1	2054	
8890	1	2054	
8891	1	2053	
8892	1	2056	
8893	1	2051	
8894	1	2051	
8895	1	2054	
8896	1	2055	
8897	1	2054	
8898	1	2053	
8899	1	2051	
8900	1	2052	
8901	1	2050	
8902	1	2055	
8903	1	2056	
8904	1	2054	
8905	1	2056	
8906	1	2056	
8907	1	2059	
8908	1	2055	
8909	1	2054	
8910	1	2056	
8911	1	2058	
8912	1	2057	
8913	1	2057	
8914	1	2053	
8915	1	2054	
8916	1	2056	
8917	1	2053	
8918	1	2056	
8919	1	2053	
8920	1	2054	
8921	1	2055	
8922	1	2053	
8923	1	2055	
8924	1	2054	
8925	1	2054	
8926	1	2053	
8927	1	2054	
8928	1	2055	
8929	1	2054	
8930	1	2055	
8931	1	2054	
8932	1	2054	
8933	1	2052	
8934	1	2055	
8935	1	2053	
8936	1	2054	
8937	1	2054	
8938	1	2053	
8939	1	2053	
8940	1	2052	
8941	1	2052	
8942	1	2059	
8943	1	2057	
8944	1	2056	
8945	1	2056	
8946	1	2052	
8947	1	2052	
8948	1	2054	
8949	1	2054	
8950	1	2056	
8951	1	2054	
8952	1	2053	
8953	1	2054	
8954	1	2053	
8955	1	2055	
8956	1	2053	
8957	1	2052	
8958	1	2051	
8959	1	2055	
8960	1	2051	
8961	1	2057	
8962	1	2053	
8963	1	2051	
8964	1	2054	
8965	1	2056	
8966	1	2054	
8967	1	2054	
8968	1	2054	
8969	1	2060	
8970	1	2058	
8971	1	2055	
8972	1	2054	
8973	1	2053	
8974	1	2053	
8975	1	2051	
8976	1	2052	
8977	1	2054	
8978	1	2055	
8979	1	2055	
8980	1	2055	
8981	1	2053	
8982	1	2057	
8983	1	2054	
8984	1	2055	
8985	1	2055	
8986	1	2055	
8987	1	2053	
8988	1	2052	
8989	1	2051	
8990	1	2051	
8991	1	2053	
8992	1	2056	
8993	1	2056	
8994	1	2053	
8995	1	2056	
8996	1	2058	
8997	1	2058	
8998	1	2058	
8999	1	2055	
9000	1	2054	
9001	1	2050	
9002	1	2051	
9003	1	2050	
9004	1	2053	
9005	1	2058	
9006	1	2058	
9007	1	2056	
9008	1	2054	
9009	1	2054	
9010	1	2057	
9011	1	2051	
9012	1	2051	
9013	1	2053	
9014	1	2054	
9015	1	2054	
9016	1	2054	
9017	1	2053	
9018	1	2053	
9019	1	2054	
9020	1	2055	
9021	1	2054	
9022	1	2053	
9023	1	2054	
9024	1	2053	
9025	1	2059	
9026	1	2053	
9027	1	2055	
9028	1	2052	
9029	1	2054	
9030	1	2054	
9031	1	2054	
9032	1	2054	
9033	1	2054	
9034	1	2054	
9035	1	2052	
9036	1	2054	
9037	1	2054	
9038	1	2053	
9039	1	2054	
9040	1	2056	
9041	1	2053	
9042	1	2055	
9043	1	2055	
9044	1	2056	
9045	1	2058	
9046	1	2062	
9047	1	2060	
9048	1	2055	
9049	1	2053	
9050	1	2053	
9051	1	2050	
9052	1	2049	
9053	1	2055	
9054	1	2053	
9055	1	2050	
9056	1	2053	
9057	1	2056	
9058	1	2053	
9059	1	2052	
9060	1	2051	
9061	1	2053	
9062	1	2055	
9063	1	2052	
9064	1	2050	
9065	1	2052	
9066	1	2053	
9067	1	2054	
9068	1	2060	
9069	1	2054	
9070	1	2059	
9071	1	2056	
9072	1	2053	
9073	1	2053	
9074	1	2057	
9075	1	2050	
9076	1	2052	
9077	1	2050	
9078	1	2032	
9079	1	2022	
9080	1	2027	
9081	1	2045	
9082	1	2058	
9083	1	2067	
9084	1	2071	
9085	1	2077	
9086	1	2088	
9087	1	2088	
9088	1	2090	
9089	1	2082	
9090	1	2070	
9091	1	2052	
9092	1	2033	
9093	1	2025	
9094	1	2030	
9095	1	2034	
9096	1	2040	
9097	1	2045	
9098	1	2048	
9099	1	2052	
9100	1	2052	
9101	1	2055	
9102	1	2063	
9103	1	2061	
9104	1	2052	
9105	1	2053	
9106	1	2052	
9107	1	2054	
9108	1	2047	
9109	1	2046	
9110	1	2051	
9111	1	2052	
9112	1	2052	
9113	1	2056	
9114	1	2055	
9115	1	2057	
9116	1	2055	
9117	1	2055	
9118	1	2058	
9119	1	2054	
9120	1	2056	
9121	1	2055	
9122	1	2058	
9123	1	2054	
9124	1	2055	
9125	1	2057	
9126	1	2054	
9127	1	2055	
9128	1	2055	
9129	1	2060	
9130	1	2057	
9131	1	2055	
9132	1	2055	
9133	1	2056	
9134	1	2060	
9135	1	2055	
9136	1	2054	
9137	1	2055	
9138	1	2052	
9139	1	2052	
9140	1	2052	
9141	1	2055	
9142	1	2055	
9143	1	2052	
9144	1	2052	
9145	1	2055	
9146	1	2053	
9147	1	2053	
9148	1	2052	
9149	1	2055	
9150	1	2057	
9151	1	2055	
9152	1	2050	
9153	1	2054	
9154	1	2052	
9155	1	2056	
9156	1	2052	
9157	1	2056	
9158	1	2058	
9159	1	2055	
9160	1	2054	
9161	1	2051	
9162	1	2053	
9163	1	2055	
9164	1	2055	
9165	1	2057	
9166	1	2057	
9167	1	2056	
9168	1	2054	
9169	1	2058	
9170	1	2054	
9171	1	2053	
9172	1	2054	
9173	1	2056	
9174	1	2058	
9175	1	2060	
9176	1	2058	
9177	1	2058	
9178	1	2055	
9179	1	2050	
9180	1	2053	
9181	1	2056	
9182	1	2059	
9183	1	2059	
9184	1	2056	
9185	1	2055	
9186	1	2053	
9187	1	2054	
9188	1	2059	
9189	1	2056	
9190	1	2056	
9191	1	2058	
9192	1	2056	
9193	1	2056	
9194	1	2056	
9195	1	2049	
9196	1	2049	
9197	1	2045	
9198	1	2048	
9199	1	2047	
9200	1	2024	
9201	1	2014	
9202	1	2024	
9203	1	2042	
9204	1	2056	
9205	1	2062	
9206	1	2071	
9207	1	2079	
9208	1	2089	
9209	1	2085	
9210	1	2087	
9211	1	2078	
9212	1	2066	
9213	1	2049	
9214	1	2042	
9215	1	2037	
9216	1	2037	
9217	1	2039	
9218	1	2042	
9219	1	2043	
9220	1	2045	
9221	1	2051	
9222	1	2052	
9223	1	2054	
9224	1	2061	
9225	1	2055	
9226	1	2054	
9227	1	2058	
9228	1	2056	
9229	1	2055	
9230	1	2056	
9231	1	2059	
9232	1	2055	
9233	1	2057	
9234	1	2053	
9235	1	2053	
9236	1	2049	
9237	1	2053	
9238	1	2056	
9239	1	2058	
9240	1	2063	
9241	1	2066	
9242	1	2058	
9243	1	2054	
9244	1	2053	
9245	1	2052	
9246	1	2046	
9247	1	2052	
9248	1	2049	
9249	1	2051	
9250	1	2053	
9251	1	2053	
9252	1	2054	
9253	1	2057	
9254	1	2059	
9255	1	2059	
9256	1	2059	
9257	1	2055	
9258	1	2050	
9259	1	2041	
9260	1	2045	
9261	1	2048	
9262	1	2050	
9263	1	2052	
9264	1	2053	
9265	1	2059	
9266	1	2061	
9267	1	2057	
9268	1	2059	
9269	1	2058	
9270	1	2056	
9271	1	2049	
9272	1	2048	
9273	1	2053	
9274	1	2053	
9275	1	2058	
9276	1	2056	
9277	1	2056	
9278	1	2055	
9279	1	2061	
9280	1	2055	
9281	1	2058	
9282	1	2059	
9283	1	2058	
9284	1	2060	
9285	1	2059	
9286	1	2060	
